time,theta,theta_dot,tau
0.0,0.005,0.5,5
0.01,0.014897500000000001,0.9897499999999999,5
0.02,0.02958960125,1.469210125,5
0.03,0.048973065674374996,1.9383464424375,5
0.04,0.07202360407831412,2.3050538403939127,4.079229800888815
0.05,0.09617409421071606,2.4150490132401936,1.5969742985807507
0.06,0.1201563538143208,2.3982259603604748,0.36286632095620597
0.07,0.14336438821081154,2.3208034396490733,-0.2345018381347579
0.08,0.16552861301997346,2.2164224809161923,-0.5079667052935886
0.09,0.18654924750923615,2.1020634489262684,-0.6175415172060124
0.1,0.20641117436827375,1.986192685903759,-0.6450203166852226
0.11,0.22514049167816585,1.872931730989212,-0.6321654247805828
0.12,0.2427823981773486,1.7641906499182733,-0.6002542186724611
0.13,0.259389991099348,1.6607592921999426,-0.5600842481109787
0.14,0.27501864292106853,1.562865182172052,-0.5170942462892416
0.15,0.2897232272698006,1.4704584348732066,-0.4739851150935106
0.16,0.3035567970861349,1.38335698163343,-0.4320612317882251
0.17,0.31657000036781147,1.3013203281676549,-0.3919167397879981
0.18,0.3288108680127244,1.2240867644912927,-0.3537865709461858
0.19,0.3403247870020197,1.151391898929526,-0.31772586871304753
0.2,0.35115456362874475,1.0829776626725076,-0.28370158928326816
0.21,0.36134052827795815,1.0185964649213404,-0.2516391631627988
0.22,0.37092065720333717,0.9580128925378999,-0.22144616671115713
0.23,0.37993069898333126,0.9010041779994079,-0.1930242382756715
0.24,0.3884042995893524,0.8473600606021167,-0.16627498888136572
0.25,0.396373123183424,0.7968823594071605,-0.14110285003446243
0.26,0.4038669673798223,0.7493844196398289,-0.11741636420017088
0.27,0.41091387252060924,0.7046905140786945,-0.09512868799346741
0.28,0.4175402249206567,0.6626352400047457,-0.07415770166344426
0.29,0.42377085423445565,0.623062931379899,-0.0544259257871893
0.3,0.42962912518736107,0.5858270952905411,-0.035860347500370704
0.31,0.4351370239504552,0.5507898763094131,-0.018392208159491386
0.32,0.4403152394477705,0.5178215497315293,-0.00195677854172871
0.33,0.4451832398808991,0.4868000433128571,0.013506865483469355
0.34,0.44975934474601953,0.45761048651204295,0.02805606059487964
0.35000000000000003,0.45406079260563526,0.43014478596157385,0.041744764170727144
0.36,0.4581038048636299,0.4043012257994658,0.054623751874051774
0.37,0.46190364577849125,0.3799840914861344,0.06674080445839348
0.38,0.46547467893616745,0.35710331576762183,0.07814088400134689
0.39,0.4688304203911921,0.3355741455024627,0.08886629997001672
0.4,0.4719835886725266,0.31531682813344736,0.0989568656059352
0.41000000000000003,0.4749461518390418,0.2962563166515247,0.10845004514372603
0.42,0.47772937175868124,0.2783219919639424,0.11738109237400307
0.43,0.48034384577509537,0.26144740164141456,0.12578318104685038
0.44,0.48279954591588325,0.24557001407878812,0.13368752758956615
0.45,0.4851058557874849,0.23063098716016428,0.14112350658746076
0.46,0.48727160529321456,0.21657495057296589,0.14811875945379138
0.47000000000000003,0.4893051033028716,0.2033498009657016,0.15469929668855764
0.48,0.49121416839478893,0.19090650919173272,0.16088959410488735
0.49,0.4930061577840482,0.1791989389259309,0.16671268337772283
0.5,0.4946879945438809,0.16818367598326706,0.17219023725057192
0.51,0.4962661932209595,0.1578198677078578,0.17734264971450142
0.52,0.49774688393934313,0.14806907183836238,0.18218911145709693
0.53,0.49913583508224857,0.138895114290541,0.18674768085913018
0.54,0.5004384746355576,0.130263955330902,0.1910353508028424
0.55,0.5016599102720208,0.12214356364632936,0.195068111538233
0.56,0.5028049482504588,0.11450379784380203,0.198861009840003
0.5700000000000001,0.5038781111998774,0.10731629494184729,0.20242820467444234
0.58,0.5048836548542892,0.10055436544118182,0.20578301958165346
0.59,0.5058255838001529,0.09419289458636307,0.20893799196719343
0.6,0.5067076662946846,0.08820824945316554,0.2119049194853737
0.61,0.5075334482098641,0.08257819151796074,0.21469490368592736
0.62,0.5083062661537209,0.07728179438567025,0.21731839108561934
0.63,0.5090292598174395,0.07229936637186613,0.21978521181595323
0.64,0.5097053835939668,0.06761237765272739,0.2221046159917056
0.65,0.5103374175110987,0.06320339171319266,0.2242853079321816
0.66,0.5109279775194973,0.05905600083985027,0.2263354783647641
0.67,0.5114795251736957,0.05515476541983607,0.2282628347275767
0.68,0.5119943767419075,0.051485156821186005,0.23007462968431436
0.6900000000000001,0.5124747117783413,0.04803350364337143,0.23177768795704523
0.7000000000000001,0.5129225811897323,0.044786941139112114,0.23337843157525173
0.71,0.5133399148259367,0.04173336362043116,0.23488290363587905
0.72,0.5137285286226645,0.03886137967277856,0.23629679066052856
0.73,0.514090131322781,0.03616027001165741,0.23762544363467653
0.74,0.5144263308010384,0.03361994782574024,0.23887389780455026
0.75,0.5147386400156364,0.031230921459804932,0.24004689130631418
0.76,0.5150284826086312,0.028984259299475162,0.2411488826964815
0.77,0.5152971981759091,0.026871556727792126,0.2421840674473803
0.78,0.5155460472262234,0.024884905031430142,0.24315639346989315
0.79,0.515776215847638,0.02301686214145544,0.2440695757196507
0.8,0.5159888200986428,0.021260425100476547,0.24492710994232114
0.81,0.5161849101401853,0.019609004154255417,0.2457322856072054
0.8200000000000001,0.516365474123905,0.018056398371964568,0.24648819807803524
0.8300000000000001,0.5165314418509538,0.016596772704877714,0.2471977600654769
0.84,0.5166836882149405,0.01522463639866846,0.2478637124043599
0.85,0.5168230364417343,0.01393482267937969,0.24848863419431622
0.86,0.5169502611381142,0.012722469637980703,0.24907495234275323
0.87,0.5170660911605419,0.011583002242771138,0.24962495054455758
0.88,0.5171712123146726,0.010512115413058605,0.25014077773169985
0.89,0.5172662698955881,0.009505758091551499,0.25062445602487693
0.9,0.517351871078153,0.008560118256480785,0.2510778882153972
0.91,0.5174285871663333,0.007671608818042415,0.25150286480598893
0.92,0.5174969557098031,0.006836854346982242,0.2519010706361734
0.93,0.517557482495665,0.00605267858619102,0.25227409111638577
0.9400000000000001,0.5176106434226568,0.005316092699176685,0.2526234180949274
0.9500000000000001,0.5176568862647754,0.004624284211854426,0.25295045537794114
0.96,0.5176966323308437,0.003974606606834271,0.253256523924557
0.97,0.5177302780261598,0.003364569531604296,0.253542866734489
0.98,0.5177581963220049,0.002791829584519691,0.2538106534485547
0.99,0.5177807381384487,0.0022541816443746266,0.25406098467645577
1.0,0.5177982336455643,0.001749550711562099,0.254294896069974
1.01,0.5178109934878709,0.0012759842306567138,0.2545133621560407
1.02,0.5178193099365299,0.0008316448659095321,0.25471729994259495
1.03,0.5178234579735604,0.00041480370305528423,0.2549075723129044
1.04,0.5178236963120825,2.3833852206185354e-05,0.25508499121890027
1.05,0.5178202683563643,-0.00034279557181407966,0.25525032068627984
1.06,0.5178134031052246,-0.0006865251139671058,0.25540427964228907
1.07,0.5178033160021318,-0.001008710309277482,0.25554754457671514
1.08,0.5177902097351457,-0.001310626698614086,0.2556807520458444
1.09,0.5177742749896602,-0.0015934745485408565,0.2558045010285823
1.1,0.5177556911567335,-0.0018583832926697842,0.2559193551438327
1.11,0.5177346269996236,-0.0021064157109920148,0.2560258447366105
1.12,0.5177112412809975,-0.0023385718626012676,0.25612446884152085
1.1300000000000001,0.5176856833531338,-0.002555792786371973,0.25621569703027147
1.1400000000000001,0.5176580937133005,-0.0027589639833289423,0.2562999711497228
1.1500000000000001,0.5176286045263654,-0.0029489186935106257,0.25637770695816764
1.16,0.5175973401165703,-0.0031264409795084035,0.2564492956645028
1.17,0.5175644174302895,-0.0032922686280802737,0.2565151053766648
1.18,0.5175299464714841,-0.0034470958805372753,0.25657548246495865
1.19,0.5174940307114633,-0.003591576002077539,0.256630752844232
1.2,0.5174567674744686,-0.0037263236994659046,0.2566812231814325
1.21,0.5174182483005073,-0.003851917396122844,0.2567271820307717
1.22,0.5173785592867779,-0.003968901372943017,0.25676890090282734
1.23,0.5173377814089498,-0.004077787782811503,0.2568066352701155
1.24,0.5172959908234872,-0.004179058546263269,0.2568406255133949
1.25,0.5172532591521343,-0.004273167135293464,0.256871097812189
1.26,0.517209653749615,-0.0043605402519216125,0.25689826498272694
1.27,0.5171652379555379,-0.0044415794077143295,0.256922327266496
1.28,0.5171200713314368,-0.004516662410118449,0.2569434730721849
1.29,0.517074209883826,-0.004586144761078187,0.25696187967409734
1.3,0.5170277062740943,-0.004650360973163309,0.25697771386884616
1.31,0.5169806100160141,-0.004709625808019885,0.25699113259384876
1.32,0.5169329676615965,-0.004764235441769509,0.25700228350890686
1.33,0.5168848229759804,-0.004814468561612012,0.2570113055440193
1.34,0.5168362171020027,-0.004860587397767629,0.2570183294141116
1.35,0.5167871887150576,-0.0049028386945075995,0.25702347810404813
1.36,0.5167377741688185,-0.004941454623911268,0.25702686732459057
1.37,0.5166880076323617,-0.0049766536456865625,0.25702860594187404
1.3800000000000001,0.5166379212191989,-0.005008641316269113,0.257028796381218
1.3900000000000001,0.516587545108697,-0.005037611050190626,0.2570275350071305
1.4000000000000001,0.5165369076603317,-0.005063744836528277,0.25702491248093384
1.41,0.5164860355212011,-0.00508721391306081,0.25702101409753486
1.42,0.5164349537271945,-0.005108179400663142,0.25701592010196506
1.43,0.5163836857981918,-0.005126792900264491,0.2570097059874511
1.44,0.5163322538276459,-0.005143197054593439,0.25700244277575357
1.45,0.5162806785668781,-0.005157526076785328,0.2569941972809854
1.46,0.5162289795044005,-0.005169906247764798,0.2569850323582873
1.47,0.5161771749405573,-0.005180456384323383,0.25697500713706145
1.48,0.5161252820577618,-0.005189288279552305,0.25696417724112475
1.49,0.5160733169865886,-0.005196507117314851,0.25695259499534495
1.5,0.5160212948679663,-0.005202211862229592,0.2569403096206839
1.51,0.5159692299116997,-0.005206495626667188,0.25692736741716127
1.52,0.5159171354515386,-0.005209446016103745,0.2569138119361508
1.53,0.5158650239969981,-0.005211145454053737,0.25689968414304865
1.54,0.5158129072821191,-0.0052116714878931185,0.25688502256929446
1.55,0.5157607963113534,-0.005211097076576817,0.256869863456644
1.56,0.5157087014027392,-0.005209490861424129,0.25685424089188824
1.57,0.5156566322285301,-0.005206917420903331,0.2568381869342927
1.58,0.515604597853426,-0.005203437510398692,0.2568217317351308
1.59,0.5155526067705478,-0.005199108287823186,0.2568049036503883
1.6,0.5155006669352886,-0.005193983525916276,0.2567877293467784
1.61,0.5154487857971685,-0.005188113812011715,0.25677023390150666
1.62,0.515396970329808,-0.00518154673604236,0.25675244089587546
1.6300000000000001,0.5153452270591338,-0.005174327067427078,0.25673437250384834
1.6400000000000001,0.5152935620899185,-0.005166496921528227,0.25671604957507
1.6500000000000001,0.5152419811307556,-0.005158095916289121,0.2566974917130447
1.6600000000000001,0.5151904895175593,-0.00514916131963343,0.25667871734867687
1.67,0.5151390922356777,-0.005139728188169032,0.25665974380949697
1.68,0.5150877939407008,-0.005129829497684121,0.25664058738505413
1.69,0.5150365989780411,-0.005119496265975706,0.2566212633878977
1.7,0.5149855114013568,-0.005108757668427135,0.25660178621131113
1.71,0.5149345349898896,-0.005097641146728362,0.2565821693839807
1.72,0.5148836732647772,-0.005086172511238997,0.2565624256204928
1.73,0.5148329295044046,-0.005074376037257335,0.25654256686995747
1.74,0.5147823067588481,-0.005062274555650577,0.2565226043608184
1.75,0.5147318078634668,-0.005049889538119758,0.2565025486436021
1.76,0.5146814354516925,-0.005037241177428361,0.2564824096310234
1.77,0.5146311919670635,-0.005024348462902181,0.2564621966356224
1.78,0.5145810796745487,-0.005011229251483337,0.25644191840513975
1.79,0.5145311006712029,-0.004997900334576712,0.2564215831560439
1.8,0.5144812568961932,-0.004984377500967326,0.25640119860477995
1.81,0.514431550140233,-0.004970675596016646,0.25638077199740994
1.82,0.5143819820544594,-0.004956808577366341,0.2563603101374162
1.83,0.5143325541587859,-0.00494278956735192,0.25633981941190065
1.84,0.5142832678497626,-0.004928630902325583,0.2563193058161859
1.85,0.5142341244079717,-0.004914344179091203,0.25629877497676
1.86,0.5141851250049861,-0.0048999402985521155,0.2562782321735585
1.87,0.5141362707099177,-0.0048854295068397465,0.2562576823599063
1.8800000000000001,0.5140875624955782,-0.004870821433958502,0.25623713018240335
1.8900000000000001,0.5140390012442763,-0.004856125130197361,0.2562165799986088
1.9000000000000001,0.5139905877532727,-0.004841349100364742,0.25619603589442486
1.9100000000000001,0.5139423227399125,-0.004826501336017033,0.25617550170004044
1.92,0.5138942068464547,-0.004811589345776937,0.25615498100515377
1.93,0.5138462406446159,-0.004796620183881303,0.2561344771730283
1.94,0.5137984246398458,-0.004781600477010925,0.25611399335423546
1.95,0.5137507592753502,-0.004766536449561163,0.25609353249901834
1.96,0.5137032449358759,-0.004751433947426062,0.2560730973691139
1.97,0.5136558819512723,-0.004736298460364827,0.2560526905490651
1.98,0.5136086705998418,-0.004721135143048341,0.256032314456728
1.99,0.5135616111114931,-0.004705948834870057,0.25601197135309406
2.0,0.5135147036707072,-0.0046907440785955235,0.2559916633515179
2.0100000000000002,0.5134679484193282,-0.004675525137894534,0.25597139242664435
2.02,0.5134213454591897,-0.0046602960138432264,0.25595116042259825
2.0300000000000002,0.513374894854585,-0.004645060460467862,0.2559309690605799
2.04,0.5133285966345915,-0.004629821999348658,0.255910819946391
2.05,0.5132824507952577,-0.004614583933380815,0.25589071457710444
2.06,0.5132364573016607,-0.004599349359699038,0.25587065434777045
2.07,0.513190616089842,-0.004584121181876775,0.25585064055711315
2.08,0.5131449270686281,-0.004568902121377203,0.25583067441354135
2.09,0.513099390121345,-0.004553694728316552,0.25581075704064515
2.1,0.5130540051074285,-0.004538501391650466,0.25579088948167006
2.11,0.5130087718639417,-0.004523324348679978,0.25577107270508903
2.12,0.512963690207001,-0.004508165694056929,0.2557513076084653
2.13,0.5129187599331186,-0.004493027388237689,0.25573159502288156
2.14,0.5128739808204643,-0.00447791126543465,0.2557119357169422
2.15,0.5128293526300532,-0.004462819041101137,0.25569233040048034
2.16,0.5127848751068637,-0.004447752318963996,0.2556727797281778
2.17,0.5127405479808869,-0.004432712597683827,0.2556532843024407
2.18,0.5126963709681164,-0.004417701277048633,0.2556338446772586
2.19,0.5126523437714776,-0.004402719663872825,0.25561446136040655
2.2,0.5126084660817025,-0.004387768977513209,0.2555951348165604
2.21,0.5125647375781518,-0.004372850355067123,0.2555758654698095
2.22,0.5125211579295894,-0.004357964856240472,0.25555665370632896
2.23,0.5124777267949095,-0.004343113467987743,0.2555374998760739
2.24,0.5124344438238215,-0.00432829710880185,0.25551840429571615
2.25,0.5123913086574934,-0.004313516632811417,0.25549936725005473
2.2600000000000002,0.5123483209291573,-0.004298772833608668,0.2554803889942119
2.27,0.5123054802646787,-0.004284066447858294,0.25546146975536066
2.2800000000000002,0.5122627862830919,-0.0042693981586868785,0.25544260973448185
2.29,0.5122202385971031,-0.004254768598876003,0.2554238091079173
2.3000000000000003,0.5121778368135643,-0.004240178353870645,0.2554050680288299
2.31,0.5121355805339183,-0.004225627964608349,0.255386386628631
2.32,0.5120934693546164,-0.004211117930185655,0.2553677650182644
2.33,0.5120515028675131,-0.004196648710336111,0.2553492032897665
2.34,0.5120096806602349,-0.004182220727821396,0.25533070151683646
2.35,0.5119680023165287,-0.004167834370615127,0.25531225975661587
2.36,0.5119264674165885,-0.004153489994017224,0.2552938780501204
2.37,0.5118850755373625,-0.004139187922598415,0.25527555642367894
2.38,0.511843826252842,-0.004124928452050248,0.2552572948896432
2.39,0.5118027191343327,-0.004110711850928212,0.2552390934472313
2.4,0.5117617537507099,-0.0040965383622835975,0.2552209520834269
2.41,0.511720929668658,-0.004082408205188404,0.2552028707738502
2.42,0.5116802464528959,-0.004068321576213491,0.25518484948304043
2.43,0.5116397036663883,-0.004054278650759774,0.2551668881657424
2.44,0.5115993008705447,-0.004040279584358875,0.2551489867670512
2.45,0.5115590376254061,-0.004026324513865931,0.25513114522333
2.46,0.5115189134898199,-0.004012413558613715,0.25511336346245206
2.47,0.5114789280216054,-0.003998546821448518,0.2550956414048392
2.48,0.5114390807777077,-0.003984724389773309,0.2550779789632651
2.49,0.5113993713143431,-0.0039709463364591534,0.25506037604404075
2.5,0.5113597991871356,-0.0039572127207473,0.2550428325469982
2.5100000000000002,0.5113203639512447,-0.003943523589093807,0.25502534836595325
2.52,0.5112810651614852,-0.003929878975949381,0.2550079233892478
2.5300000000000002,0.5112419023724404,-0.003916278904485893,0.2549905575001876
2.54,0.5112028751385671,-0.003902723387323909,0.25497325057694287
2.5500000000000003,0.5111639830142956,-0.0038892124271539376,0.25495600249351846
2.56,0.5111252255541217,-0.003875746017388532,0.25493881311937105
2.57,0.5110866023126945,-0.0038623241427117928,0.2549216823203505
2.58,0.5110481128448982,-0.0038489467796420096,0.2549046099585027
2.59,0.5110097567059277,-0.0038356138970400354,0.2548875958925404
2.6,0.5109715334513618,-0.003822325456588621,0.25487063997807
2.61,0.5109334426372293,-0.0038090814132577867,0.25485374206767153
2.62,0.510895483820072,-0.003795881715731542,0.25483690201122555
2.63,0.5108576565570041,-0.003782726306788753,0.25482011965631757
2.64,0.510819960405767,-0.0037696151237077815,0.254803394847954
2.65,0.510782394924781,-0.0037565480986149202,0.2547867274290706
2.66,0.5107449596731928,-0.003743525158811761,0.2547701172406991
2.67,0.5107076542109219,-0.003730546227089293,0.25475356412205874
2.68,0.5106704780987014,-0.0037176112220489886,0.25473706791044615
2.69,0.510633430898118,-0.0037047200583407267,0.2547206284420235
2.7,0.5105965121716484,-0.0036918726469655993,0.2547042455511421
2.71,0.5105597214826935,-0.003679068895491766,0.2546879190711694
2.72,0.5105230583956105,-0.003666308708296978,0.25467164883419624
2.73,0.5104865224757426,-0.003653591986797083,0.2546554346711448
2.74,0.5104501132894462,-0.0036409186296363413,0.25463927641211925
2.75,0.5104138304041174,-0.003628288532891338,0.2546231738862459
2.7600000000000002,0.5103776733882149,-0.0036157015902424814,0.25460712692196896
2.77,0.5103416418112835,-0.0036031576931482177,0.2545911353470016
2.7800000000000002,0.5103057352439734,-0.003590656731017189,0.25457519898832237
2.79,0.51026995325806,-0.0035781985913387214,0.2545593176725679
2.8000000000000003,0.5102342954264617,-0.0035657831598363775,0.2545434912257857
2.81,0.5101987613232556,-0.0035534103206064037,0.25452771947356334
2.82,0.5101633505236933,-0.003541079956224846,0.2545120022413221
2.83,0.5101280626042144,-0.0035287919478954877,0.25449633935389526
2.84,0.5100928971424591,-0.0035165461755306605,0.2544807306361764
2.85,0.5100578537172804,-0.00350434251786545,0.2544651759127755
2.86,0.5100229319087548,-0.00349218085256246,0.254449675008097
2.87,0.5099881312981918,-0.003480061056304074,0.25443422774644875
2.88,0.5099534514681431,-0.003467983004863218,0.25441883395224363
2.89,0.509918892002411,-0.003455946573202529,0.2544034934497058
2.9,0.5098844524860555,-0.003443951635547632,0.25438820606311396
2.91,0.509850132505401,-0.003431998065449216,0.2543729716169024
2.92,0.5098159316480424,-0.0034200857358607398,0.2543577899354954
2.93,0.5097818495028504,-0.003408214519195402,0.25434266084350243
2.94,0.5097478856599765,-0.00339638428738901,0.25432758416565004
2.95,0.5097140397108569,-0.0033845949119557356,0.2543125597268432
2.96,0.5096803112482166,-0.003372846264040669,0.254297587352188
