time,theta,theta_dot,tau
0.0,0.01,1.0,10
0.01,0.029593999999999995,1.9593999999999996,9.798999999999996
0.02,0.05324254359999999,2.3648543599999994,4.461220599999999
0.03,0.07816066329384001,2.4918119693840017,1.769168237640022
0.04,0.1029703607957317,2.480969750189168,0.42902053357538605
0.05,0.12701102283560095,2.4040662039869245,-0.22135633158673684
0.06,0.14998660655919982,2.2975583723598882,-0.5207595640551759
0.07,0.17178519872676326,2.179859216756344,-0.6424865782838669
0.08,0.19238679936644634,2.0601600639683073,-0.6751270851657178
0.09,0.21181625657329983,1.94294572068535,-0.6639180203526891
0.1,0.23011930486192878,1.830304828862894,-0.6319116458008409
0.11,0.24735042196652057,1.7231117104591782,-0.5908105658336158
0.12,0.2635667279888878,1.6216306022367237,-0.5465135291494487
0.13,0.2788249706853062,1.5258242696418376,-0.5019538415070732
0.14,0.2931800840859598,1.4355113400653616,-0.45855195649373837
0.15,0.3066845464575178,1.3504462371558024,-0.41695871903954007
0.16,0.3193881417781317,1.2703595320613867,-0.37743553028423626
0.17,0.33133792244283583,1.194978066470412,-0.3400486786084045
0.18,0.3425782699701855,1.1240347527349674,-0.3047685628389445
0.19,0.35315100116502385,1.0572731194838385,-0.27152024697920396
0.2,0.3630954931186977,0.9944491953673888,-0.24020911668521716
0.21,0.3724488136827137,0.9353320564016013,-0.2107338040250486
0.22,0.38124585082112317,0.8797037138409467,-0.18299260748486912
0.23,0.3895194376974379,0.827358687631472,-0.15688659391599558
0.24,0.3973004721044498,0.7781034407011883,-0.1323210129278234
0.25,0.404618029729572,0.7317557625122222,-0.10920585769719882
0.26,0.411499471188848,0.6881441459276011,-0.08745599847898067
0.27,0.417970542976891,0.6471071788043028,-0.06699110645303907
0.28,0.4240554725789092,0.6084929602018193,-0.04773547877552886
0.29,0.429777058031516,0.5721585452606829,-0.029617821081545426
0.3,0.4351567522302977,0.5379694198781713,-0.012571015757221193
0.31,0.4402147422789575,0.5057990048659783,0.0034681099688533834
0.32,0.4449700241648467,0.4755281885889218,0.018559009342109967
0.33,0.44944047303267,0.44704488678232673,0.03275763173425705
0.34,0.4536429093140497,0.4202436281379719,0.046116627429252155
0.35000000000000003,0.45759316095642305,0.3950251642373328,0.058685541278228115
0.36,0.4613061219808853,0.37129610244622313,0.07051099541458128
0.37,0.464795807585306,0.34896856044207264,0.08163686143818238
0.38,0.46807540599641345,0.3279598411107452,0.09210442256779316
0.39,0.4711573272625921,0.3081921266178636,0.1019525262915395
0.4,0.4740532491678602,0.2895921905268116,0.11121772804434871
0.41000000000000003,0.47677416043686377,0.27209112690036014,0.11993442642477747
0.42,0.4793304013907121,0.2556240953848339,0.12813499044324161
0.43,0.4817317022040545,0.2401300813342371,0.13584987926635517
0.44,0.48398721890492663,0.22555167008721408,0.14310775489864436
0.45,0.486105567250546,0.21183483456193403,0.14993558821710562
0.46,0.4880948546043775,0.19892873538315473,0.1563587587498667
0.47000000000000003,0.48996270993239865,0.18678553280211269,0.16240114856839938
0.48,0.49171631202953286,0.17536020971342234,0.16808523063971847
0.49,0.4933624160806758,0.1646104051142976,0.17343215196620343
0.5,0.49490737865457507,0.15449625738992506,0.17846181181947207
0.51,0.49635718122302797,0.14498025684528731,0.18319293535889514
0.52,0.49771745229240644,0.13602710693784814,0.18764314290617978
0.53,0.49899348822938394,0.1276035936977506,0.19182901513279726
0.54,0.5001902728579082,0.1196784628524281,0.1957661544010172
0.55,0.5013124958999191,0.11222230420109733,0.19946924248613196
0.56,0.5023645703280324,0.1052074428113262,0.20295209489246768
0.5700000000000001,0.5033506486943845,0.098607836635207,0.2062277119650895
0.58,0.504274638496048,0.0923989801663506,0.2093083269856697
0.59,0.5051402166338607,0.08655781378126656,0.21220545143045377
0.6,0.5059508430181583,0.08106263842976205,0.2149299175581385
0.61,0.5067097733717457,0.07589303535874817,0.2174919184848927
0.62,0.5074200712774708,0.07102979057250554,0.2199010458951962
0.63,0.5080846195149695,0.06645482374986914,0.22216632552687243
0.64,0.5087061307285243,0.06215112135548198,0.22429625056358704
0.65,0.5092871574654998,0.058102673697551475,0.22629881305605348
0.66,0.509830101622493,0.054294415699316353,0.228181533489909
0.67,0.510337223334144,0.05071217116510575,0.22995148860900372
0.68,0.5108106493374921,0.04734260033481086,0.23161533759714426
0.6900000000000001,0.5112523808428189,0.04417315053268108,0.23317934671441043
0.7000000000000001,0.5116643009400987,0.041192009727984896,0.2346494124809838
0.71,0.512048181568455,0.03838806283562408,0.23603108349203816
0.72,0.5124056900744062,0.035750850595119434,0.23732958094630585
0.73,0.512738395383164,0.03327053087578387,0.23854981796287134
0.74,0.5130477738058136,0.030937842264958708,0.23969641775848716
0.75,0.5133352145038598,0.028744069804625183,0.24077373075256325
0.76,0.5136020246313556,0.026681012749586275,0.24178585066246583
0.77,0.5138494341736355,0.024740954227989772,0.24273662964963005
0.78,0.5140786005005549,0.02291663269193473,0.2436296925718653
0.79,0.51429061265108,0.021201215052515144,0.24446845039446852
0.8,0.5144864953650798,0.01958827139998409,0.24525611281073245
0.81,0.514667212877234,0.018071751215417948,0.24599570011687533
0.8200000000000001,0.5148336724870939,0.0166459609859822,0.24669005438734315
0.8300000000000001,0.514986727918503,0.015305543140910125,0.24734184999002262
0.84,0.5151271824808059,0.014045456230294179,0.24795360348127404
0.85,0.5152557920435396,0.012860956273366008,0.24852768291718008
0.86,0.5153732678356122,0.011747579207268374,0.24906631661546663
0.87,0.5154802790793258,0.010701124371363745,0.2495716014002135
0.88,0.5155774554689859,0.00971763896601089,0.2500455103604071
0.89,0.5156653895032688,0.008793403428285936,0.2504899001504456
0.9,0.5157446386799747,0.007924917670582442,0.25090651786025664
0.91,0.515815727561286,0.007108888131129878,0.25129700747957817
0.92,0.5158791497171719,0.006342215588579949,0.2516629159813697
0.93,0.5159353695541272,0.005621983695533224,0.2520056990458347
0.9400000000000001,0.5159848240360134,0.00494544818861616,0.2523267264469996
0.9500000000000001,0.5160279243033652,0.004310026735182405,0.2526272871213924
0.96,0.516065057197156,0.0037132893790823695,0.2529085939377187
0.97,0.5160965866926572,0.003152949550118562,0.2531717881847564
0.98,0.5161228552486973,0.002626855604008156,0.2534179437952483
0.99,0.516144185077312,0.00213298286146998,0.2536480713197685
1.0,0.516160879338482,0.0016694261170022385,0.25386312166627256
1.01,0.516173223264379,0.0012343925897043652,0.2540639896196627
1.02,0.5161814852172787,0.0008261952899737092,0.2542515171528238
1.03,0.5161859176850545,0.0004432467775849059,0.2544264965427461
1.04,0.5161867582179352,8.405328807189593e-05,0.25458967330291415
1.05,0.5161842303099916,-0.0002527907943627049,0.254741748942236
1.06,0.5161785442286136,-0.000568608137801395,0.25488338356173634
1.07,0.5161698977950463,-0.0008646433567383747,0.25501519829737673
1.08,0.5161584771188723,-0.001142067617397412,0.2551377776195851
1.09,0.5161444572891586,-0.0014019829713693077,0.25525167149623773
1.1,0.5161280030248232,-0.0016454264335400857,0.25535739742859764
1.11,0.5161092692866291,-0.0018733738194093785,0.2554554423670107
1.12,0.5160884018530691,-0.0020867433560022896,0.2555462645135036
1.1300000000000001,0.5160655378622717,-0.0022863990797386924,0.2556302950179701
1.1400000000000001,0.5160408063219335,-0.0024731540338195734,0.2557079395743793
1.1500000000000001,0.5160143285891639,-0.002647773276967074,0.2557795799227278
1.16,0.5159862188220176,-0.002810976714624407,0.2558455752626152
1.17,0.5159565844043864,-0.002963441763120488,0.2559062635831231
1.18,0.5159255263458197,-0.003105805856672338,0.2559619629140506
1.19,0.5158931396577556,-0.003238668806403671,0.256012972504262
1.2,0.515859513707553,-0.00336259502025708,0.256059573929063
1.21,0.5158247325516344,-0.0034781155918622124,0.2561020321336738
1.22,0.5157888752489724,-0.0035857302662011363,0.2561405964140555
1.23,0.5157520161560799,-0.003685909289254768,0.25617550134070965
1.24,0.5157142252045943,-0.003779095148558514,0.25620696762715156
1.25,0.5156755681624839,-0.00386570421103769,0.25623520294779367
1.26,0.5156361068798417,-0.003946128264216808,0.25626040270724326
1.27,0.5155958995201769,-0.004020735966480166,0.25628275076444396
1.28,0.515555000778059,-0.004089874211792022,0.2563024201136739
1.29,0.5155134620839203,-0.004153869413865374,0.2563195735259376
1.3,0.5154713317967746,-0.004213028714572431,0.2563343641521165
1.31,0.5154286553855637,-0.004267641121087302,0.2563469360903241
1.32,0.515385475599805,-0.004317978575874571,0.2563574249206917
1.33,0.5153418326301689,-0.004364296963608878,0.2563659582073845
1.34,0.5152977642595825,-0.004406837058631875,0.25637265597213266
1.35,0.515253306005417,-0.004445825416549694,0.2563776311388867
1.36,0.5152084912532849,-0.004481475213198434,0.25638098995291114
1.37,0.5151633513829438,-0.0045139870341203495,0.25638283237478365
1.3800000000000001,0.5151179158867693,-0.004543549617456096,0.25638325245129034
1.3900000000000001,0.5150722124812394,-0.004570340552992082,0.2563823386645335
1.4000000000000001,0.5150262672118394,-0.004594526939995204,0.25638017425999005
1.41,0.5149801045517773,-0.004616266006204707,0.25637683755582563
1.42,0.5149337474948742,-0.0046357056903115436,0.2563724022335794
1.43,0.5148872176429734,-0.004652985190076953,0.2563669376117207
1.44,0.5148405352881924,-0.004668235478097194,0.2563605089032689
1.45,0.5147937194903209,-0.004681579787146246,0.25635317745798625
1.46,0.514746788149652,-0.004693134066886224,0.2563450009903314
1.47,0.5146997580755158,-0.004703007413615707,0.25633603379415393
1.48,0.514652645050769,-0.004711302474685809,0.25632632694433377
1.49,0.5146054638924786,-0.004718115829034326,0.25631592848696216
1.5,0.5145582285090261,-0.004723538345255724,0.25630488361821846
1.51,0.51451095195384,-0.00472765551860584,0.25629323485196076
1.52,0.5144636464759597,-0.0047305477880308375,0.2562810221789489
1.53,0.5144163235676139,-0.004732290834579901,0.25626828321488304
1.54,0.5143689940089924,-0.004732955862149375,0.25625505334119625
1.55,0.5143216679103757,-0.004732609861673005,0.25624136583683
1.56,0.514274354751778,-0.004731315859770953,0.2562272520018738
1.57,0.5142270634202515,-0.004729133152648875,0.2562127412751556
1.58,0.5141798022449887,-0.004726117526279068,0.25619786134329403
1.59,0.5141325790303535,-0.0047223214635205195,0.256182638244824
1.6,0.5140854010869629,-0.004717794339059701,0.2561670964670808
1.61,0.5140382752609344,-0.004712582602848516,0.25615125903778135
1.62,0.5139912079614075,-0.004706729952688584,0.2561351476114968
1.6300000000000001,0.5139442051864408,-0.004700277496671264,0.25611878255033926
1.6400000000000001,0.5138972725473808,-0.004693263905997166,0.25610218300062715
1.6500000000000001,0.5138504152917927,-0.004685725558814893,0.2560853669643137
1.6600000000000001,0.5138036383250373,-0.0046776966755401736,0.25606835136688055
1.67,0.5137569462305751,-0.004669209446217667,0.25605115212063567
1.68,0.5137103432890717,-0.004660294150337387,0.2560337841848468
1.69,0.5136638334963756,-0.0046509792696197896,0.25601626162164437
1.7,0.5136174205804344,-0.004641291594118171,0.25599859764928
1.71,0.5135711080172137,-0.004631256322057822,0.255980804691997
1.72,0.5135248990456756,-0.004620897153816797,0.2559628944266056
1.73,0.5134787966818722,-0.004610236380328622,0.2559448778269562
1.74,0.5134328037322096,-0.00459929496627193,0.25592676520543733
1.75,0.5133869228059258,-0.004588092628379134,0.2559085662517784
1.76,0.513341156326835,-0.004576647909083284,0.25589029007024555
1.77,0.5132955065443764,-0.004564978245861914,0.2558719452138145
1.78,0.5132499755440117,-0.004553100036462396,0.25585353971701097
1.79,0.513204565257009,-0.004541028700275764,0.2558350811265797
1.8,0.5131592774696478,-0.004528778736117575,0.2558165765300312
1.81,0.5131141138318821,-0.004516363776570228,0.2557980325830739
1.82,0.5130690758654909,-0.0045037966391162166,0.2557794555351671
1.83,0.5130241649717479,-0.004491089374299436,0.25576085125309
1.84,0.5129793824386379,-0.004478253310989302,0.2557422252441154
1.85,0.512934729447648,-0.004465299099002653,0.2557235826769876
1.86,0.5128902070801559,-0.00445223674920874,0.2557049284019626
1.87,0.5128458163234433,-0.004439075671256767,0.25568626696975594
1.8800000000000001,0.5128015580763523,-0.004425824709099721,0.25566760264904076
1.8900000000000001,0.5127574331546083,-0.004412492174402286,0.25564893944333056
1.9000000000000001,0.5127134422958286,-0.0043990858779749484,0.25563028110669705
1.9100000000000001,0.5126695861642349,-0.004385613159370608,0.2556116311583627
1.92,0.5126258653550877,-0.004372080914717933,0.25559299289677007
1.93,0.5125822803988583,-0.004358495622939427,0.2555743694123853
1.94,0.5125388317651546,-0.004344863370375738,0.25555576360047816
1.95,0.5124955198664146,-0.004331189873998468,0.25553717817227484
1.96,0.5124523450613822,-0.0043174805032458055,0.25551861566593426
1.97,0.5124093076583767,-0.004303740300547857,0.2555000784570214
1.98,0.51236640791837,-0.004289974000669836,0.255481568767859
1.99,0.512323646057881,-0.0042761860488915145,0.2554630886768342
2.0,0.5122810222516998,-0.004262380618126569,0.2554446401268117
2.0100000000000002,0.5122385366354496,-0.00424856162502372,0.25542622493325307
2.02,0.5121961893079984,-0.004234732745127004,0.2554078447916872
2.0300000000000002,0.512153980333727,-0.00422089742713033,0.25538950128494053
2.04,0.512111909744664,-0.0042070589062989635,0.2553711958897511
2.05,0.512069977542493,-0.0041932202171032695,0.25535292998302916
2.06,0.512028183700442,-0.004179384205091911,0.2553347048479394
2.07,0.5119865281650613,-0.004165553538076758,0.25531652167935415
2.08,0.5119450108578948,-0.004151730716652738,0.2552983815891555
2.09,0.5119036316770539,-0.004137918084088707,0.25528028561125715
2.1,0.5118623904986973,-0.004124117835661709,0.2552622347059792
2.11,0.5118212871784231,-0.004110332027419109,0.25524422976464234
2.12,0.511780321552579,-0.004096562584409034,0.2552262716138285
2.13,0.5117394934394944,-0.004082811308464444,0.2552083610188536
2.14,0.5116988026406394,-0.004069079885501334,0.2551904986876854
2.15,0.5116582489417156,-0.00405536989237311,0.25517268527450165
2.16,0.511617832113682,-0.004041682803371991,0.2551549213823944
2.17,0.5115775519137191,-0.004028019996288293,0.25513720756700353
2.18,0.5115374080861377,-0.004014382758139682,0.255119544339088
2.19,0.5114974003632321,-0.0040007722905613975,0.25510193216722377
2.2,0.5114575284660832,-0.003987189714898135,0.2550843714801364
2.21,0.5114177921053138,-0.003973636076936813,0.25506686266967515
2.22,0.5113781909817996,-0.0039601123514194795,0.25504940609244287
2.23,0.5113387247873369,-0.003946619446270786,0.25503200207210286
2.24,0.5112993932052713,-0.003933158206561536,0.25501465090150677
2.25,0.5112601959110887,-0.003919729418255018,0.2549973528443885
2.2600000000000002,0.5112211325729715,-0.0039063338117205065,0.2549801081372385
2.27,0.511182202852321,-0.003892972065056475,0.254962916990782
2.2800000000000002,0.511143406404249,-0.003879644807197056,0.25494577959174336
2.29,0.5111047428780405,-0.003866352620849942,0.25492869610415625
2.3000000000000003,0.511066211917588,-0.003853096045244445,0.25491166667090526
2.31,0.5110278131618006,-0.0038398755787488505,0.2548946914147011
2.32,0.5109895462449876,-0.0038266916812990026,0.254877770439649
2.33,0.5109514107972206,-0.0038135447766942474,0.25486090383228155
2.34,0.510913406444673,-0.003800435254763632,0.2548440916625776
2.35,0.5108755328099388,-0.003787363473415409,0.254827333984866
2.36,0.5108377895123335,-0.0037743297605274204,0.2548106308391662
2.37,0.5108001761681759,-0.003761334415767706,0.2547939822516584
2.38,0.510762692391053,-0.003748377712287618,0.25477738823573526
2.39,0.51072533779207,-0.0037354598983012997,0.25476084879293215
2.4,0.5106881119800839,-0.0037225811986097788,0.2547443639132899
2.41,0.5106510145619239,-0.0037097418160032232,0.25472793357638557
2.42,0.510614045142598,-0.003696941932580658,0.25471155775198695
2.43,0.5105772033254878,-0.003684181711018611,0.25469523640040337
2.44,0.5105404887125304,-0.003671461295740794,0.25467896947331836
2.45,0.5105039009043904,-0.0036587808140121,0.254662756914404
2.46,0.5104674395006203,-0.003646140377000276,0.254646598659511
2.47,0.510431104099813,-0.0036335400807404913,0.254630494637508
2.48,0.5103948942997423,-0.003620980007072469,0.2546144447704386
2.49,0.5103588096974974,-0.0036084602244946446,0.2545984489742349
2.5,0.5103228498896075,-0.0035959807889850287,0.2545825071589459
2.5100000000000002,0.5102870144721598,-0.003583541744771254,0.2545666192291445
2.52,0.5102513030409093,-0.0035711431250564003,0.2545507850842742
2.5300000000000002,0.5102157151913824,-0.0035587849526849988,0.25453500461915735
2.54,0.5101802505189744,-0.0035464672408051542,0.25451927772395266
2.5500000000000003,0.5101449086190399,-0.003534189993450146,0.2545036042848763
2.56,0.5101096890869788,-0.0035219532061085052,0.25448798418424634
2.57,0.5100745915183161,-0.003509756866266642,0.25447241730068637
2.58,0.5100396155087771,-0.0034976009539025386,0.25445690350954575
2.59,0.5100047606543574,-0.003485485441962169,0.2544414426830117
2.6,0.5099700265513895,-0.0034734102967932307,0.25442603469047564
2.61,0.5099354127966037,-0.0034613754785756596,0.2544106793985118
2.62,0.5099009189871867,-0.0034493809417018156,0.25439537667132517
2.63,0.5098665447208351,-0.0034374266351528764,0.25438012637074237
2.64,0.5098322895958067,-0.0034255125028433615,0.25436492835648217
2.65,0.5097981532109671,-0.0034136384839584507,0.2543497824861838
2.66,0.5097641351658347,-0.0034018045132397008,0.2543346886158794
2.67,0.5097302350606218,-0.0033900105213027416,0.254319646599639
2.68,0.5096964524962729,-0.003378256434880464,0.2543046562902731
2.69,0.509662787074502,-0.003366542177093082,0.2542897175390342
2.7,0.509629238397825,-0.0033548676676980168,0.254274830195783
2.71,0.509595806069592,-0.003343232823306283,0.25425999410929023
2.72,0.5095624896940162,-0.0033316375575814655,0.2542452091273829
2.73,0.5095292888762015,-0.0033200817814678122,0.25423047509662833
2.74,0.5094962032221679,-0.003308565403360622,0.2542157918628791
2.75,0.509463232338875,-0.003297088329288142,0.2542011592711366
2.7600000000000002,0.5094303758342442,-0.0032856504630769585,0.2541865771656917
2.77,0.5093976333171791,-0.0032742517065133397,0.25417204539014293
2.7800000000000002,0.5093650043975843,-0.003262891959490241,0.25415756378751786
2.79,0.5093324886863829,-0.0032515711201294845,0.25414313220050166
2.8000000000000003,0.5093000857955335,-0.0032402890849331373,0.25412875047112904
2.81,0.5092677953380446,-0.0032290457489029117,0.2541144184410824
2.82,0.509235616927988,-0.0032178410056523305,0.2541001359517475
2.83,0.5092035501805131,-0.0032066747474963713,0.2540859028444231
2.84,0.5091715947118572,-0.0031955468655914614,0.2540717189598064
2.85,0.5091397501393573,-0.00318445724999524,0.25405758413877255
2.86,0.5091080160814595,-0.0031734057897759432,0.25404349822187255
2.87,0.5090763921577286,-0.0031623923730941445,0.25402946104959256
2.88,0.5090448779888557,-0.0031514168872888854,0.25401547246229805
2.89,0.5090134731966665,-0.0031404792189248494,0.2540015323006104
2.9,0.5089821774041274,-0.003129579253903156,0.2539876404047652
2.91,0.5089509902353525,-0.003118716877488889,0.25397379661542574
2.92,0.5089199113156085,-0.003107891974397639,0.253960000773091
2.93,0.50888894027132,-0.0030971044288532674,0.25394625271836846
2.94,0.5088580767300738,-0.003086354124625898,0.25393255229216305
2.95,0.5088273203206228,-0.003075640945095001,0.25391889933542067
2.96,0.5087966706728898,-0.0030649647733017897,0.25390529368922454
