time,theta,theta_dot,tau
0.0,0.02,2.0,10
0.01,0.046915999999999985,2.691599999999998,4.4979999999999905
0.02,0.07150839280000003,2.4592392800000042,0.27782840000003084
0.03,0.09484493150223998,2.333653870223995,0.7447093767199569
0.04,0.11689454815101218,2.20496166487722,0.7130557713826011
0.05,0.13773830262997952,2.0843754478967353,0.7333388438382116
0.06,0.15744109537874745,1.970279274876792,0.7471834641086108
0.07,0.17606551734553844,1.862442196679099,0.7608364372074252
0.08,0.19367060028118338,1.7605082935644945,0.7736826174576041
0.09,0.2103121576920054,1.6641557410822028,0.7858325849331553
0.1,0.2260429455494787,1.573078785747332,0.7973174092507591
0.11,0.24091283135029873,1.4869885800820033,0.8081742556459792
0.12,0.2549689520992615,1.4056120748962766,0.8184374268129657
0.13,0.2682558638350565,1.3286911735795017,0.8281394350627869
0.14,0.28081568294831044,1.2559819113253947,0.8373110031893285
0.15,0.2926882197639806,1.1872536815670127,0.8459811727674085
0.16,0.3039111048092534,1.1222885045272808,0.8541773951128082
0.17,0.31451990816770664,1.0608803358453243,0.8619256184723643
0.18,0.3245482522982673,1.0028344130560616,0.8692503703117618
0.19,0.33402791867680165,0.9479666378534344,0.8761748351114296
0.2,0.34298894859857704,0.8961029921775411,0.8827209279008539
0.21,0.35145973846131506,0.8470789862738012,0.8889093637672252
0.22,0.3594671298310493,0.8007391369734216,0.894759723557633
0.23,0.3670364945764547,0.756936474540541,0.9002905159844063
0.24,0.37419181534167173,0.7155320765217038,0.9055192363289937
0.25,0.38095576161286543,0.6763946271193684,0.9104624219325181
0.26,0.38734976161978246,0.6394000006917018,0.9151357046470823
0.27,0.3933940703003605,0.6044308680578039,0.9195538604159261
0.28,0.3991078335439554,0.5713763243594887,0.9237308561380471
0.29,0.4045091489169497,0.5401315372994319,0.9276798939673707
0.3,0.4096151230633491,0.5105974146399364,0.931413453186138
0.31,0.41444192596242574,0.4826802899076647,0.934943329785308
0.32,0.4190048422155012,0.4562916253075494,0.9382806738781073
0.33,0.4233183195245369,0.4313477309035715,0.9414360250648874
0.34,0.4273960145162934,0.4077694991756502,0.9444193458612533
0.35000000000000003,0.43125083605740216,0.38548215411087583,0.9472400532965399
0.36,0.4348949861977332,0.3644150140331045,0.9499070487813854
0.37,0.4383399988719213,0.34450126741881093,0.952428746340551
0.38,0.4415967764818013,0.3256777609879962,0.9548130992991746
0.39,0.4446756244757834,0.3078847993982102,0.9570676255086705
0.4,0.4475862840348453,0.29106595590618695,0.9591994311905558
0.41000000000000003,0.45033796296881223,0.2751678933966955,0.9612152334753268
0.42,0.4529393649209211,0.26014019521088366,0.9631213817069131
0.43,0.45539871697329654,0.24593520523754786,0.964923877580605
0.44,0.45772379574089866,0.23250787676021445,0.9666283941787
0.45,0.45992195203670344,0.21981562958047615,0.9682402939632131
0.46,0.46200013418634905,0.20781821496456238,0.9697646457840761
0.47000000000000003,0.463964910066196,0.19647758798469733,0.9712062409556541
0.48,0.46582248793469944,0.18575778685034103,0.9725696084529591
0.49,0.46757873612316597,0.17562481884665562,0.9738590292761424
0.5,0.46923920164834976,0.16604655251837952,0.9750785500282793
0.51,0.4708091278059204,0.15699261575706286,0.976231995749306
0.52,0.47229347080060663,0.14843429946862374,0.9773229820481766
0.53,0.47369691546576126,0.1403444665154617,0.9783549265697149
0.54,0.47502389012220597,0.13269746564447307,0.9793310598343101
0.55,0.4762785806234848,0.12546905012788465,0.9802544354837064
0.56,0.4774649436320737,0.11863630085888655,0.9811279399659214
0.5700000000000001,0.4785867191686555,0.11217755365817587,0.9819543016900374
0.58,0.479647442474263,0.10607233056075031,0.9827360996792711
0.59,0.48065045522291416,0.1003012748651185,0.9834757717507421
0.6,0.48159891612030276,0.09484608973886,0.984175622247095
0.61,0.48249581092216065,0.0896894801857917,0.984837829344694
0.62,0.4833439619040683,0.0848150981907662,0.9854644519620896
0.63,0.4841460368127481,0.08020749086797656,0.9860574362895715
0.64,0.4849045573272326,0.07585205144844771,0.9866186219618402
0.65,0.48562190705674413,0.07173497295115523,0.9871497478922266
0.66,0.4863003391006529,0.06784320439087872,0.9876524577876833
0.67,0.48694198319449167,0.06416440938387746,0.9881283053617389
0.68,0.4875488524646929,0.06068692702011898,0.9885787592621296
0.6900000000000001,0.488122849813472,0.057399734877910946,0.9890052077284051
0.7000000000000001,0.48866577395410876,0.054292414063677505,0.9894089629947322
0.71,0.48917932511576817,0.051355116165942745,0.9897912654513825
0.72,0.489665110435956,0.04857853201878303,0.9901532875787091
0.73,0.49012464905771175,0.04595386217557519,0.9904961376652643
0.74,0.4905593769477068,0.04347278899950694,0.9908208633228699
0.75,0.4909706514505287,0.04112745028219244,0.9911284548085946
0.76,0.49135975559359724,0.03891041430685193,0.991419848165451
0.77,0.49172790215636597,0.036814656276873095,0.9916959281907263
0.78,0.4920762375167162,0.03483353603502454,0.9919575312419258
0.79,0.4924058452867426,0.03296077700263581,0.992205447889001
0.8,0.49271774974946225,0.031190446271966356,0.9924404254214558
0.81,0.4930129191073487,0.029516935788640286,0.9926631702182773
0.8200000000000001,0.4932922685529922,0.027934944564351027,0.9928743499875712
0.8300000000000001,0.4935566631716282,0.02643946186360443,0.9930745958844269
0.84,0.49380692068473797,0.025025751310976695,0.9932645045119199
0.85,0.4940438140434244,0.023689335868642535,0.9934446398132935
0.86,0.49426807387978855,0.022425983636412426,0.9936155348600195
0.87,0.49448039082408163,0.021231694429307044,0.9937776935422564
0.88,0.49468141769498225,0.020102687090061987,0.9939315921665914
0.89,0.4948717715699455,0.01903538749632335,0.9940776809663023
0.9,0.4950520357421908,0.01802641722453263,0.9942163855290991
0.91,0.4952227615705358,0.017072582834500204,0.9943481081464858
0.92,0.49538447022794263,0.016170865740685235,0.9944732290892468
0.93,0.4955376543543237,0.015318412638104417,0.9945921078133237
0.9400000000000001,0.49568277961884805,0.014512526452435403,0.9947050840993545
0.9500000000000001,0.4958202861967047,0.013750657785667763,0.9948124791300756
0.96,0.49595059016500603,0.013030396830131174,0.9949145965085604
0.97,0.49607408482225857,0.012349465725253138,0.9950117232206874
0.98,0.4961911419355874,0.011705711332880906,0.9951041305452826
0.99,0.4963021129196684,0.011097098408100655,0.995192074913714
1.0,0.4964073299511091,0.010521703144066004,0.9952757987232139
1.01,0.4965071070218114,0.00997770707022761,0.9953555311050593
1.02,0.4966017409346582,0.009463391284679464,0.9954314886509958
1.03,0.49669151224468144,0.008977131002322543,0.9955038760998716
1.04,0.4967766861486966,0.008517390401515253,0.9955728869864877
1.05,0.49685751332622585,0.008082717752929043,0.9956387042552197
1.06,0.4969342307343766,0.007671740815075519,0.9957015008396486
1.07,0.49700706235919667,0.007283162482008628,0.9957614402109565
1.08,0.4970762199258895,0.006915756669281888,0.995818676895764
1.09,0.4971419035701415,0.006568364425199243,0.9958733569660068
1.1,0.4972043024726915,0.00623989025499719,0.9959256185018723
1.11,0.4972635954591539,0.005929298646238486,0.995975592029088
1.12,0.4973199515669996,0.0056356107845730264,0.9960234009330997
1.1300000000000001,0.4973735305814915,0.0053579014491903785,0.9960691618493724
1.1400000000000001,0.497424483542275,0.0050952960783515145,0.9961129850333839
1.1500000000000001,0.49747295322223073,0.004846967995574321,0.9961549747098397
1.16,0.49751907458010763,0.004612135787688205,0.996195229402818
1.17,0.4975629751883722,0.004390060826461257,0.9962338422479247
1.18,0.4976047756376315,0.004180044925927546,0.9962709012873066
1.19,0.4976445899189112,0.0039814281279665865,0.996306489748422
1.2,0.4976825257850031,0.0037935866091918526,0.996340686307932
1.21,0.49771868509202694,0.003615930702384691,0.9963735653405663
1.22,0.49775316412228965,0.0034479030262730315,0.9964051971546879
1.23,0.49778605388946723,0.0032889767177571483,0.9964356482151364
1.24,0.49781744042707604,0.0031386537608803456,0.996464981353429
1.25,0.49784740506114933,0.0029964634073299367,0.9964932559668402
1.26,0.49787602466798325,0.0028619606833951107,0.9965205282062894
1.27,0.4979033719177702,0.002734724978693366,0.9965468511541553
1.28,0.4979295155048919,0.002614358712170024,0.9965722749922703
1.29,0.49795452036560334,0.002500486071142711,0.9965968471607323
1.3,0.49797844788379714,0.00239275181938053,0.9966206125079671
1.31,0.49800135608550156,0.0022908201704424716,0.9966436134325942
1.32,0.49802329982272875,0.0021943737227179865,0.996665890017602
1.33,0.49804433094725653,0.0021031124527800165,0.9966874801571266
1.34,0.4980644984748951,0.002016752763854009,0.996708419676273
1.35,0.4980838487407587,0.0019350265863581199,0.9967287424442377
1.36,0.49810242554603634,0.0018576805277674094,0.9967484804817428
1.37,0.4981202702967256,0.001784475068929188,0.9967676640617653
1.3800000000000001,0.4981374221347703,0.0017151838044682302,0.996786321805611
1.3900000000000001,0.49815391806201764,0.0016495927247315149,0.9968044807730911
1.4000000000000001,0.49816979305738845,0.001587499537079358,0.9968221665481403
1.41,0.4981850801876317,0.0015287130243242311,0.9968394033195409
1.42,0.49819981071201463,0.001473052438292928,0.996856213957269
1.43,0.49821401418128064,0.0014203469266027627,0.9968726200847249
1.44,0.49822771853118913,0.0013704349908474646,0.9968886421470862
1.45,0.49824095017093295,0.0013231639743806658,0.996904299475468
1.46,0.49825373406671547,0.0012783895782492686,0.9969196103483993
1.47,0.49826609382075066,0.0012359754035181705,0.9969345920489001
1.48,0.4982780517459382,0.001195792518753487,0.996949260919437
1.49,0.4982896289364493,0.0011577190511102688,0.9969636324130371
1.5,0.4983008453344481,0.0011216397998767016,0.9969777211422859
1.51,0.49831171979315925,0.001087445871116384,0.996991540925033
1.52,0.498322270136483,0.0010550343323781311,0.9970051048281854
1.53,0.49833251321534555,0.0010243078862537684,0.9970184252085332
1.54,0.4983424649609639,0.000995174561835384,0.997031513751726
1.55,0.49835214043519493,0.0009675474231016849,0.997044381509177
1.56,0.49836155387812686,0.0009413442931911112,0.9970570389323878
1.57,0.49837071875306543,0.0009164874938550075,0.9970694959061688
1.58,0.49837964778905663,0.00089290359911985,0.9970817617793826
1.59,0.49838835302108137,0.000870523202470548,0.9970938453944267
1.6,0.4983968458280489,0.0008492806967532808,0.9971057551148117
1.61,0.49840513696871064,0.000829114066175747,0.9971174988515867
1.62,0.4984132366156069,0.0008099646896231174,0.997129084087746
1.6300000000000001,0.4984211543871552,0.0007917771548287724,0.9971405179020536
1.6400000000000001,0.49842889937798174,0.0007744990826565503,0.9971518069908636
1.6500000000000001,0.498436480187592,0.0007580809610248831,0.9971629576891334
1.6600000000000001,0.4984439049474713,0.0007424759879277001,0.9971739759902105
1.67,0.4984511813467019,0.000727639923060315,0.9971848675645696
1.68,0.4984583166561773,0.0007135309475408816,0.9971956377773368
1.69,0.49846531775149056,0.0007001095313286701,0.9972062917050639
1.7,0.4984721911345697,0.0006873383079147268,0.9972168341515757
1.71,0.49847894295412826,0.0006751819558563923,0.9972272696628051
1.72,0.4984855790249963,0.0006636070868048696,0.9972376025409271
1.73,0.49849210484639284,0.0006525821396552514,0.997247836857647
1.74,0.4984985256191979,0.000642077280504523,0.9972579764668597
1.75,0.4985048462622787,0.0006320643080818104,0.9972680250165344
1.76,0.49851107142792234,0.0006225165643620371,0.9972779859599994
1.77,0.49851720551642287,0.000613408850054327,0.9972878625664872
1.78,0.4985232526898704,0.000604717344756052,0.9972976579313815
1.79,0.49852921688518465,0.0005964195314247148,0.9973073749854622
1.8,0.49853510182643507,0.0005884941250426115,0.9973170165041711
1.81,0.49854091103648657,0.0005809210051484673,0.9973265851159208
1.82,0.49854664784800734,0.0005736811520767063,0.9973360833101885
1.83,0.49855231541387424,0.0005667565866916372,0.9973455134451277
1.84,0.49855791671700833,0.0005601303134072103,0.9973548777546721
1.85,0.49856345457967166,0.0005537862663329188,0.9973641783553489
1.86,0.4985689316722557,0.0005477092584039126,0.9973734172528648
1.87,0.49857435052158783,0.0005418849332150824,0.9973825963477692
1.8800000000000001,0.4985797135187836,0.000536299719576501,0.9973917174415903
1.8900000000000001,0.4985850229266687,0.0005309407885091113,0.9974007822420186
1.9000000000000001,0.4985902808867949,0.0005257960126218,0.9974097923681553
1.9100000000000001,0.4985954894260715,0.0005208539276624859,0.9974187493551041
1.92,0.4986006504630342,0.0005161036962708711,0.9974276546590162
1.93,0.4986057658137701,0.0005115350735881054,0.99743650966079
1.94,0.49861083719751875,0.0005071383748687609,0.9974453156707375
1.95,0.49861586624196674,0.0005029044448012843,0.9974540739321345
1.96,0.4986208544882518,0.0004988246285017329,0.9974627856248364
1.97,0.4986258033956932,0.0004948907441388052,0.9974714518689398
1.98,0.49863071434626355,0.000491095057036024,0.9974800737279419
1.99,0.49863558864881524,0.00048743025517140165,0.997488652211722
2.0,0.4986404275430758,0.00048388942605362536,0.9974971882796273
2.0100000000000002,0.4986452322034241,0.00048046603483174586,0.9975056828430691
2.02,0.4986500037424607,0.00047715390366050555,0.9975141367684078
2.0300000000000002,0.49865474321438163,0.00047394719209222343,0.9975225508789103
2.04,0.4986594516181683,0.0004708403786677429,0.997530925957687
2.05,0.49866412990060244,0.00046782824341072397,0.9975392627493854
2.06,0.49866877895911593,0.0004649058513469151,0.9975475619625912
2.07,0.49867339964448476,0.00046206853688249397,0.9975558242715832
2.08,0.49867799276337554,0.0004593118890810222,0.9975640503184035
2.09,0.4986825590807525,0.00045663173769566306,0.9975722407143648
2.1,0.49868709932215255,0.00045402414000551123,0.9975803960419021
2.11,0.49869161417583624,0.00045148536836870485,0.9975885168561238
2.12,0.49869610429482064,0.0004490118984406056,0.9975966036862164
2.13,0.498700570298801,0.0004466003980375955,0.9976046570368465
2.14,0.4987050127759673,0.00044424771662952676,0.9976126773895805
2.15,0.49870943228472114,0.0004419508753838631,0.997620665204021
2.16,0.498713829355299,0.00043970705778866975,0.9976286209191583
2.17,0.4987182044913065,0.0004375136007470926,0.9976365449542844
2.18,0.49872255817116823,0.0004353679861738802,0.9976444377101205
2.19,0.49872689084949917,0.00043326783309439293,0.997652299570026
2.2,0.4987312029584001,0.0004312108900940648,0.997660130900544
2.21,0.4987354949086827,0.0004291950282589397,0.9976679320526717
2.22,0.4987397670910273,0.0004272182344638398,0.9976757033625193
2.23,0.49874401987707745,0.0004252786050175162,0.9976834451520549
2.24,0.4987482536204744,0.0004233743396992407,0.9976911577300723
2.25,0.49875246865783524,0.00042150373608032646,0.9976988413927039
2.2600000000000002,0.498756665309677,0.00041966518417385195,0.9977064964241783
2.27,0.4987608438812908,0.0004178571613824134,0.9977141230974838
2.2800000000000002,0.49876500466356793,0.00041607822770835636,0.9977217216749026
2.29,0.49876914793378024,0.00041432702122948364,0.9977292924085956
2.3000000000000003,0.4987732739563187,0.0004126022538439256,0.9977368355412475
2.31,0.4987773829833908,0.0004109027072088334,0.997744351306384
2.32,0.49878147525568023,0.00040922722894479294,0.9977518399290658
2.33,0.49878555100297034,0.00040757472900848196,0.9977593016261513
2.34,0.49878961044473313,0.00040594417628102124,0.9977667366068076
2.35,0.49879365379068696,0.00040433459538150143,0.9977741450731091
2.36,0.49879768124132245,0.00040274506355003186,0.9977815272199073
2.37,0.4988016929884009,0.0004011747078420514,0.99778888323588
2.38,0.4988056892154243,0.00039962270234149115,0.99779621330322
2.39,0.49880967009808064,0.00039808826563461744,0.997803517598485
2.4,0.49881363580466404,0.00039657065834162845,0.9978107962925137
2.41,0.4988175864964725,0.00039506918084633694,0.9978180495510224
2.42,0.4988215223281834,0.0003935831710892024,0.9978252775345825
2.43,0.49882544344820895,0.0003921120025541636,0.9978324803992362
2.44,0.4988293499990317,0.0003906550822762989,0.9978396582963056
2.45,0.49883324211752234,0.00038921184905869714,0.9978468113731136
2.46,0.4988371199352392,0.0003877817716887511,0.9978539397727243
2.47,0.4988409835787126,0.00038636434733615007,0.9978610436345599
2.48,0.49884483316971223,0.000384959099965061,0.9978681230942378
2.49,0.4988486688255014,0.0003835655789131765,0.9978751782841476
2.5,0.49885249065907594,0.0003821833574544198,0.9978822093331656
2.5100000000000002,0.49885629877939136,0.00038081203154235023,0.9978892163673188
2.52,0.49886009329157666,0.0003794512185289212,0.9978961995094867
2.5300000000000002,0.4988638742971368,0.00037810055601169125,0.9979031588798316
2.54,0.4988676418941441,0.00037675970073370425,0.9979100945958895
2.5500000000000003,0.4988713961774195,0.000375428327536127,0.9979170067726673
2.56,0.4988751372387029,0.00037410612834259504,0.9979238955226394
2.57,0.4988788651668157,0.00037279281127500897,0.9979307609562392
2.58,0.4988825800478129,0.0003714880997223902,0.9979376031815058
2.59,0.4988862819651283,0.00037019173154214215,0.9979444223045857
2.6,0.49888997099971066,0.0003689034582381745,0.9979512184295078
2.61,0.49889364723015317,0.00036762304424794003,0.9979579916585892
2.62,0.49889731073281524,0.00036635026620760017,0.9979647420922286
2.63,0.4989009615819385,0.0003650849123218403,0.9979714698293055
2.64,0.49890459984975527,0.00036382678167997236,0.9979781749668285
2.65,0.4989082256065925,0.00036257568372378263,0.9979848576005695
2.66,0.4989118389209688,0.00036133143763178004,0.9979915178245868
2.67,0.4989154398596869,0.00036009387181066947,0.997998155731648
2.68,0.4989190284879209,0.0003588628234041669,0.9980047714132466
2.69,0.4989226048692988,0.00035763813778984634,0.9980113649594723
2.7,0.49892616906598025,0.0003564196681465748,0.9980179364592762
2.71,0.4989297211387305,0.0003552072750285418,0.9980244860004436
2.72,0.49893326114699016,0.00035400082596520166,0.9980310136696586
2.73,0.49893678914894085,0.0003528001950695869,0.9980375195524849
2.74,0.4989403052015678,0.0003516052626949828,0.9980440037335435
2.75,0.4989438093607187,0.0003504159150893149,0.9980504662964548
2.7600000000000002,0.49894730168115936,0.0003492320440678109,0.9980569073238745
2.77,0.49895078221662664,0.00034805354672842845,0.9980633268976558
2.7800000000000002,0.498954251019878,0.0003468803251384611,0.9980697250986676
2.79,0.49895770814273893,0.0003457122860933093,0.9980761020070995
2.8000000000000003,0.49896115363614724,0.0003445493408312417,0.9980824577022142
2.81,0.49896458755019546,0.00034339140482160914,0.9980887922626619
2.82,0.49896800993417056,0.000342238397508583,0.9980951057662366
2.83,0.4989714208365917,0.00034109024211460116,0.9981013982901256
2.84,0.498974820305246,0.0003399468654315574,0.9981076699108254
2.85,0.49897820838722207,0.00033880819760661706,0.998113920704083
2.86,0.49898158512894203,0.0003376741719939358,0.998120150745184
2.87,0.4989849505761917,0.00033654472496820855,0.9981263601087524
2.88,0.49898830477414924,0.0003354197957537619,0.9981325488687952
2.89,0.49899164776741184,0.0003342993262603522,0.9981387170987083
2.9,0.49899497960002165,0.0003331832609823793,0.998144864871564
2.91,0.49899830031548975,0.00033207154680806153,0.9981509922596629
2.92,0.4990016099568189,0.0003309641329162516,0.9981570993349245
2.93,0.4990049085665256,0.00032986097066452615,0.9981631861688374
2.94,0.4990081961866599,0.00032876201343528643,0.9981692528322372
2.95,0.4990114728588256,0.0003276672165666805,0.9981752993956945
2.96,0.49901473862419776,0.00032657653721808845,0.9981813259291915
2.97,0.4990179935235406,0.0003254899342852569,0.9981873325023404
