time,theta,theta_dot,tau
0.0,0.02,2.0,10
0.01,0.04871599999999998,2.871599999999998,4.4979999999999905
0.02,0.0755972728,2.6881272800000016,-0.6763515999999825
0.03,0.10086137195823999,2.5264099158239994,-0.5229859112800099
0.04,0.12460456823237862,2.374319627413863,-0.4324082023430016
0.05,0.14691848806016683,2.2313919827788204,-0.3467131053397612
0.06,0.16788922608582812,2.09707380256613,-0.2661843258041774
0.07,0.1875976908506512,1.9708464764823068,-0.19050448811915288
0.08,0.20611991706496383,1.8522226214312636,-0.11938156972979819
0.09,0.2235273592036526,1.7407442138688782,-0.0525410726104365
0.1,0.2398871674143807,1.6359808210728117,0.010274965120416368
0.11,0.25526244680541904,1.5375279391038341,0.06930896603751435
0.12,0.2697125011142667,1.445005430884767,0.12478874947069407
0.13,0.28329306169794716,1.3580560583680477,0.17692841118917446
0.14,0.29605650272918416,1.2763441031237017,0.22592915009256753
0.15,0.3080520434294006,1.1995540700216447,0.271980045104268
0.16,0.3193259381194275,1.127389469002688,0.3152587852651001
0.17,0.3299216548217707,1.0595716702343194,0.35593235584714655
0.18,0.3398800431040764,0.9958388282305685,0.3941576831365028
0.19,0.3492394918118941,0.9359448707817727,0.4300822403757021
0.2,0.358036077299794,0.8796585487899855,0.4638446172039412
0.21,0.36630370273320745,0.8267625433413498,0.4955750547959088
0.22,0.3740742289988807,0.7770526265673283,0.525395948763375
0.23,0.38137759772942853,0.7303368730547818,0.5534223217633949
0.24,0.3882419469170266,0.6864349187598101,0.5797622676367378
0.25,0.3946937195626645,0.6451772645637923,0.6045173687919547
0.26,0.4007577657804887,0.6064046217824186,0.62778308844665
0.27,0.40645743875149415,0.5699672971005446,0.6496491392407284
0.28,0.4118146848970732,0.5357246145579007,0.6701998296447957
0.29,0.41685012862060994,0.503544372353676,0.6895143895009181
0.3,0.42158315194433665,0.4733023323726734,0.7076672759538907
0.31,0.42603196934895415,0.4448817404617475,0.7247284609526776
0.32,0.4302136981049974,0.4181728756043212,0.7407637014338642
0.33,0.4341444243675186,0.39307262625212025,0.755834793229206
0.34,0.4378392652893002,0.3694840921781553,0.7699998096778184
0.35000000000000003,0.44131242739243726,0.3473162103137069,0.7833133258652663
0.36,0.44457726142368154,0.32648340312442575,0.795826629354154
0.37,0.44764631390536036,0.30690524816788095,0.8075879182208603
0.38,0.4505313755809263,0.28850616755659536,0.818642487162687
0.39,0.453243526942201,0.27121513612746856,0.8290329023940484
0.4,0.4557931810141086,0.25496540719075966,0.8387991660072309
0.41000000000000003,0.4581901235621049,0.23969425479963402,0.8479788704321269
0.42,0.46044355087755623,0.22534273154512854,0.8566073435916641
0.43,0.46256210528696856,0.21185544094123077,0.86471778531288
0.44,0.4645539085221815,0.19918032352129117,0.8723413955213006
0.45,0.4664265930803783,0.18726845581968593,0.8795074947124013
0.46,0.4681873316950047,0.17607386146263776,0.8862436371665001
0.47000000000000003,0.46984286503139167,0.1655533336386957,0.892575717343431
0.48,0.471399527714026,0.15566626826343155,0.8985280698683973
0.49,0.4728632727859664,0.14637450719404344,0.904123563494283
0.5,0.47423969469485244,0.13764219088860227,0.9093836894044292
0.51,0.4755340508942613,0.1294356199408854,0.9143286441955507
0.52,0.4767512821438239,0.12172312495626006,0.9189774078624402
0.53,0.47789603158648425,0.11447494426603365,0.9233478170843288
0.54,0.478972662676566,0.10766310900817602,0.9274566340969821
0.55,0.479985276027873,0.10126133513070068,0.9313196114161642
0.56,0.48093772524687856,0.09524492190055704,0.9349515526615628
0.5700000000000001,0.4818336318121414,0.08959065652628384,0.9383663697174189
0.58,0.4826763990574024,0.08427672452610029,0.9415771364496792
0.59,0.48346922531235526,0.07928262549528399,0.9445961391870283
0.6,0.4842151162518317,0.07458909394764433,0.9474349241612765
0.61,0.48491689650108605,0.07017802492543436,0.9501043420899957
0.62,0.48557722054199015,0.06603240409041143,0.9526145900733292
0.63,0.4861985829622515,0.0621362420261348,0.9549752509671177
0.64,0.48678332808723007,0.05847451249785967,0.957195330384434
0.65,0.4873336590315454,0.05503309443153573,0.9592832914677334
0.66,0.4878516462054249,0.05179871738795044,0.9612470875667412
0.67,0.4883392353086394,0.04875891032144522,0.9630941929477213
0.68,0.488798254842893,0.04590195342536701,0.9648316316529599
0.6900000000000001,0.48923042317167553,0.04321683287824847,0.9664660046214617
0.7000000000000001,0.48963735515483625,0.040693198316073015,0.9680035151763862
0.71,0.4900205683835,0.03832132286637325,0.9694499929769773
0.72,0.4903814890393975,0.03609206558974954,0.9708109165272001
0.73,0.49072145740123735,0.033996836183986016,0.9720914343294649
0.74,0.49104173301937976,0.032027561814243315,0.9732963847629605
0.75,0.4913434995787942,0.030176655941444322,0.9744303147654767
0.76,0.4916278694690776,0.028436989028341644,0.9754974973891473
0.77,0.4918958880791804,0.026801861010277775,0.976501948299253
0.78,0.49214853783342255,0.0252649754242158,0.9774474412785648
0.79,0.49238674198438515,0.02382041509625819,0.9783375227982678
0.8,0.49261136817732204,0.022462619293688518,0.9791755257107349
0.81,0.49282323179985577,0.02118636225337212,0.9799645821177465
0.8200000000000001,0.4930230991298914,0.019986733003562754,0.9807076354633333
0.8300000000000001,0.49321169029390377,0.01885911640123519,0.9814074518983231
0.84,0.4933896820470208,0.017799175311699146,0.9820666309601891
0.85,0.49355771038563784,0.016802833861706556,0.9826876156096636
0.86,0.4937163730026513,0.01586626170134555,0.983272701662556
0.87,0.49386623159479137,0.014985859214008256,0.9838240466536834
0.88,0.4940078140309643,0.01415824361729312,0.9843436781667074
0.89,0.4941416163899756,0.013380235901134973,0.9848335016620025
0.9,0.4942681048755038,0.012648848552823088,0.9852953078334485
0.91,0.494387717615718,0.011961274021416512,0.9857307795216159
0.92,0.4945008663544884,0.01131487387704404,0.9861414982106445
0.93,0.49460793804072106,0.01070716862326646,0.9865289501339412
0.9400000000000001,0.4947092963219521,0.01013582812310343,0.9868945320117903
0.9500000000000001,0.49480528294796994,0.009598662601784968,0.9872395564434671
0.96,0.4948962190898852,0.009093614191525412,0.9875652569747313
0.97,0.4949824065797409,0.008618748985572999,0.9878727928595845
0.98,0.4950641290754505,0.008172249570960254,0.9881632535356968
0.99,0.4951416531555611,0.007752408011056854,0.9884376628299321
1.0,0.49521522934806944,0.007357619250834623,0.9886969829105638
1.01,0.49528509309726365,0.006986374919421489,0.9889421180016149
1.02,0.49535146567232313,0.0066372575059495,0.9891739178731385
1.03,0.4954145550211857,0.006308934886257943,0.989393181121486
1.04,0.4954745565729788,0.006000155179310695,0.9896006582519481
1.05,0.49553165399211324,0.005709741913445464,0.989797054575597
1.06,0.4955860198869512,0.005436589483799302,0.9899830329316679
1.07,0.4956378164757852,0.005179658883394865,0.9901592162460702
1.08,0.49568719621269863,0.0049379736913421,0.9903261899354763
1.09,0.49573430237572624,0.004710616302763813,0.9904845041670729
1.1,0.49577926961958385,0.004496724385762583,0.9906346759815845
1.11,0.4958222244951024,0.004295487551851249,0.9907771912888992
1.12,0.49586328593737206,0.004106144226966089,0.9909125067433715
1.1300000000000001,0.4959025657244815,0.003927978710942057,0.9910410515059722
1.1400000000000001,0.49594016890862264,0.0037603184141120384,0.99116322890036
1.1500000000000001,0.4959761942212267,0.003602531260403772,0.9912794179694095
1.16,0.4960107344536952,0.0034540232468516876,0.9913899749377131
1.17,0.49604387681519635,0.0033142361501159213,0.9914952345860542
1.18,0.4960757032689081,0.00318264537117303,0.991595511543184
1.19,0.49610629084800634,0.003058757909826302,0.9916911014996412
1.2,0.4961357119526189,0.0029421104612549188,0.9917822823486471
1.21,0.4961640346288905,0.002832267627163374,0.9918693152578428
1.22,0.49619132283123846,0.0027288202347916825,0.9919524456772808
1.23,0.4962176366688091,0.0026313837570610655,0.9920319042855634
1.24,0.4962430326370892,0.0025395968280102353,0.9921079078802171
1.25,0.49626756383556486,0.0024531198475672175,0.9921806602133638
1.26,0.49629128017226903,0.0023716336704162153,0.9922503527777531
1.27,0.4963142285560074,0.0022948383738349487,0.9923171655451526
1.28,0.49633645307700497,0.002222452099756953,0.9923812676603165
1.29,0.4963579951766707,0.002154209966569851,0.9924428180930622
1.3,0.4963788938071358,0.0020898630465094633,0.9925019662513679
1.31,0.4963991855811817,0.002029177404589186,0.9925588525569957
1.32,0.4964189049131366,0.001971933195493511,0.9926136089871145
1.33,0.4964380841512847,0.0019179238148096162,0.9926663595826284
1.34,0.49645675370229914,0.0018669551014435211,0.9927172209264794
1.35,0.49647494214817955,0.0018188445880392675,0.9927663025926492
1.36,0.49649267635614525,0.0017734207965717204,0.9928137075684234
1.37,0.4965099815819091,0.001730522576388169,0.9928595326512013
1.3800000000000001,0.49652688156672975,0.0016899984820611476,0.9929038688210026
1.3900000000000001,0.4965433986286179,0.0016517061888154023,0.9929468015913339
1.4000000000000001,0.49655955374804883,0.0016155119430929484,0.9929884113380643
1.41,0.49657536664851115,0.001581290046231551,0.9930287736089454
1.42,0.49659085587220386,0.0015489223692704641,0.9930679594145284
1.43,0.4966060388511735,0.0015182978969624256,0.993106035501331
1.44,0.49662093197416607,0.0014893122992564374,0.9931430646086652
1.45,0.49663555064945203,0.001461867528597069,0.9931791057099981
1.46,0.4966499093638669,0.0014358714414867775,0.9932142142397824
1.47,0.49666402173829516,0.0014112374428258718,0.9932484423065036
1.48,0.4966779005798122,0.0013878841517023428,0.9932818388931139
1.49,0.49669155793068526,0.0013657350873078151,0.9933144500452369
1.5,0.4967050051144228,0.0013447183737552244,0.993346319047973
1.51,0.49671825277904963,0.001324766462682356,0.993377486592169
1.52,0.49673131093777556,0.0013058158725951481,0.9934079909307973
1.53,0.49674418900721456,0.0012878069438989588,0.9934378680256999
1.54,0.49675689584330085,0.001270683608628562,0.9934671516852721
1.55,0.4967694397750425,0.0012543931741645338,0.993495873694713
1.56,0.4967818286362411,0.0012388861198602027,0.9935240639372716
1.57,0.4967940697953012,0.001224115906010412,0.9935517505092263
1.58,0.49680617018324374,0.0012100387942547395,0.9935789598271246
1.59,0.4968181363200325,0.0011966136788792191,0.9936057167293226
1.6,0.49682997433931436,0.0011838019281835675,0.9936320445705308
1.61,0.49684169001166933,0.0011715672354984696,0.9936579653116124
1.62,0.49685328876646057,0.0011598754791217723,0.9936834996032301
1.6300000000000001,0.4968647757123675,0.0011486945906899336,0.993708666864718
1.6400000000000001,0.4968761556566827,0.001137994431522602,0.9937334853584328
1.6500000000000001,0.49688743312344635,0.0011277466763657238,0.9937579722591571
1.6600000000000001,0.49689861237048794,0.0011179247041596095,0.9937821437196804
1.67,0.496909697405442,0.0011085034954074512,0.993806014932423
1.68,0.4969206920007988,0.0010994595356800007,0.9938296001870172
1.69,0.49693159970804857,0.0010907707249758513,0.9938529129248609
1.7,0.4969424238709738,0.0010824162925235448,0.9938759657900844
1.71,0.4969531676381409,0.0010743767167060913,0.9938987706774866
1.72,0.4969638339746392,0.0010666336498308371,0.9939213387777408
1.73,0.4969744256731134,0.0010591698474188482,0.9939436806197101
1.74,0.4969849453641309,0.0010519691017490261,0.9939658061102487
1.75,0.496995395525925,0.0010450161794076406,0.9939877245716423
1.76,0.4970057784935513,0.0010382967626325157,0.9940094447769448
1.77,0.4970160964674925,0.0010317973941185144,0.9940309749826642
1.78,0.49702635152174485,0.0010255054252318297,0.9940523229602575
1.79,0.4970365456114175,0.0010194089672689289,0.9940734960249368
1.8,0.4970466805798747,0.0010134968457184068,0.9940945010634459
1.81,0.4970567581654468,0.001007758557207692,0.9941153445594818
1.82,0.497066780007738,0.0010021842291228133,0.9941360326183296
1.83,0.4970767476535539,0.000996764581588303,0.9941565709892596
1.84,0.4970866625624716,0.0009914908917670194,0.9941769650870809
1.85,0.49709652611207505,0.0009863549603452235,0.9941972200124225
1.86,0.4971063396028746,0.0009813490799529287,0.9942173405702059
1.87,0.4971161042629304,0.0009764660055835625,0.9942373312879
1.8800000000000001,0.49712582125219756,0.0009716989267147345,0.9942571964317959
1.8900000000000001,0.49713549166660903,0.0009670414411458081,0.9942769400228862
1.9000000000000001,0.4971451165419134,0.0009624875304364153,0.9942965658517284
1.9100000000000001,0.497154696857281,0.0009580315367575285,0.9943160774919542
1.92,0.49716423353869293,0.0009536681411969481,0.9943354783135969
1.93,0.49717372746212635,0.0009493923433431004,0.9943547714951765
1.94,0.4971831794565474,0.0009451994421060681,0.9943739600352347
1.95,0.4971925903067243,0.0009410850176931194,0.9943930467631353
1.96,0.497201960755871,0.0009370449146698354,0.9944120343492169
1.97,0.4972112915081314,0.0009330752260449967,0.9944309253143513
1.98,0.4972205832309144,0.0009291722782991815,0.994449722038836
1.99,0.4972298365570879,0.0009253326173498807,0.9944684267709972
2.0,0.49723905208704094,0.0009215529953025411,0.9944870416348066
2.0100000000000002,0.49724823039062177,0.0009178303580841237,0.994505568637755
2.02,0.4972573720089591,0.0009141618337288745,0.9945240096773715
2.0300000000000002,0.49726647745617336,0.0009105447214301263,0.9945423665481109
2.04,0.497275547220986,0.0009069764812636746,0.994560640947586
2.05,0.4972845817682304,0.0009034547244427956,0.9945788344819307
2.06,0.49729358154027326,0.0008999772042806083,0.9945969486718721
2.07,0.49730254695834925,0.0008965418076012118,0.9946149849573636
2.08,0.49731147842381646,0.0008931465467190565,0.9946329447026677
2.09,0.497320376319335,0.0008897895518572536,0.9946508292006598
2.1,0.49732924100997605,0.0008864690641040313,0.9946686396774967
2.11,0.49733807284426285,0.0008831834286775891,0.994686377296025
2.12,0.49734687215514994,0.000879931088709493,0.9947040431601191
2.13,0.4973556392609432,0.0008767105793302283,0.994721638317839
2.14,0.49736437446616455,0.000873520522130275,0.9947391637648532
2.15,0.49737307806236414,0.0008703596199587133,0.9947566204475778
2.16,0.4973817503288847,0.0008672266520575817,0.9947740092662205
2.17,0.497390391533579,0.0008641204694278953,0.9947913310772238
2.18,0.49739900193348435,0.0008610399905372129,0.994808586696176
2.19,0.497407581775457,0.0008579841972657015,0.994825776900138
2.2,0.49741613129676765,0.0008549521310611013,0.9948429024297544
2.21,0.4974246507256616,0.000851942889398824,0.994859963991777
2.22,0.49743314028188546,0.000848955622385536,0.9948769622607267
2.23,0.4974416001771813,0.00084598952958361,0.9948938978808806
2.24,0.49745003061575205,0.0008430438570717651,0.9949107714682826
2.25,0.49745843179469834,0.0008401178946287196,0.9949275836121425
2.2600000000000002,0.4974668039044294,0.0008372109731044268,0.9949443348765067
2.27,0.4974751471290489,0.0008343224619538707,0.9949610258017612
2.2800000000000002,0.4974834616467181,0.0008314517669214731,0.9949776569060335
2.29,0.49749174762999665,0.0008285983278538882,0.9949942286864443
2.3000000000000003,0.4975000052461632,0.0008257616166570362,0.9950107416204017
2.31,0.49750823465751703,0.0008229411353820797,0.9950271961667845
2.32,0.49751643602166085,0.0008201364143814532,0.9950435927668
2.33,0.49752460949176724,0.0008173470106371121,0.995059931845319
2.34,0.49753275521682877,0.0008145725061552393,0.995076213811657
2.35,0.4975408733418935,0.000811812506475104,0.9950924390605647
2.36,0.4975489640082857,0.000809066639218378,0.9951086079728272
2.37,0.49755702735381385,0.0008063345528143554,0.9951247209165122
2.38,0.49756506351296603,0.0008036159152193992,0.9951407782472936
2.39,0.4975730726170937,0.0008009104127654846,0.9951567803094234
2.4,0.497581054794584,0.0007982177490269052,0.9951727274361328
2.41,0.49758901017102236,0.000795537643838348,0.9951886199506765
2.42,0.497596938869345,0.0007928698322633401,0.9952044581663616
2.43,0.49760484100998226,0.0007902140637296965,0.9952202423876348
2.44,0.4976127167109936,0.0007875701011359674,0.9952359729101824
2.45,0.49762056608819427,0.0007849377200689981,0.9952516500217091
2.46,0.4976283892552746,0.0007823167080332564,0.9952672740022133
2.47,0.49763618632391193,0.0007797068637335617,0.9952828451244523
2.48,0.49764395740387607,0.0007771079964158348,0.9952983636544219
2.49,0.4976517026031285,0.0007745199252446402,0.9953138298517169
2.5,0.4976594220279153,0.0007719424786753995,0.995329243969673
2.5100000000000002,0.4976671157828548,0.0007693754939454426,0.9953446062561145
2.52,0.49767478397102,0.0007668188165233595,0.9953599169532964
2.5300000000000002,0.49768242669401624,0.0007642722996229893,0.9953751762983644
2.54,0.4976900440520536,0.000761735803732663,0.995390384523562
2.5500000000000003,0.4976976361440157,0.0007592091962123041,0.995405541856692
2.56,0.4977052030675242,0.0007566923508525584,0.9954206485210433
2.57,0.4977127449189992,0.0007541851475014042,0.9954357047358352
2.58,0.4977202617937163,0.0007516874717142323,0.9954507107164376
2.59,0.4977277537858604,0.0007491992144094543,0.9954656666744944
2.6,0.4977352209885758,0.0007467202715383895,0.995480572818086
2.61,0.497742663494014,0.0007442505438192552,0.9954954293521329
2.62,0.4977500813933781,0.0007417899364092288,0.9955102364781688
2.63,0.49775747477696497,0.0007393383586877992,0.9955249943949696
2.64,0.4977648437342047,0.000736895723972594,0.9955397032982883
2.65,0.4977721883536977,0.0007344619492972907,0.9955543633812315
2.66,0.49777950872324983,0.0007320369552159725,0.9955689748344536
2.67,0.49778680492990546,0.0007296206655600571,0.9955835378459809
2.68,0.497794077059978,0.000727213007258262,0.99559805260158
2.69,0.4978013251990798,0.0007248139101815513,0.9956125192849354
2.7,0.49780854943214903,0.000722423306919048,0.9956269380773562
2.71,0.49781574984347565,0.0007200411326631043,0.9956413091583642
2.72,0.4978229265167261,0.0007176673250476521,0.9956556327055072
2.73,0.497830079534966,0.0007153018239880652,0.9956699088944067
2.74,0.4978372089806816,0.000712944571560589,0.995684137898994
2.75,0.4978443149358005,0.0007105955118903409,0.9956983198915901
2.7600000000000002,0.49785139748171064,0.0007082545910145091,0.9957124550428164
2.77,0.49785845669927825,0.0007059217567621149,0.9957265435217101
2.7800000000000002,0.49786549266886515,0.0007035969586875549,0.9957405854960218
2.79,0.49787250547034445,0.0007012801479310242,0.995754581131882
2.8000000000000003,0.49787949518311614,0.0006989712771675564,0.9957685305942681
2.81,0.49788646188612085,0.0006966703004718437,0.995782434046612
2.82,0.4978934056578537,0.0006943771732885933,0.9957962916513491
2.83,0.49790032657637684,0.0006920918523122681,0.9958101035694903
2.84,0.4979072247193313,0.0006898142954471636,0.9958238699610438
2.85,0.4979141001639485,0.0006875444617208542,0.9958375909848034
2.86,0.4979209529870608,0.0006852823112293264,0.9958512667985254
2.87,0.4979277832651115,0.00068302780507192,0.9958648975588961
2.88,0.4979345910741646,0.0006807809053088502,0.9958784834216613
2.89,0.49794137648991343,0.0006785415748810057,0.9958920245414554
2.9,0.49794813958768935,0.0006763097775932951,0.9959055210721324
2.91,0.4979548804424699,0.0006740854780502097,0.995918973166543
2.92,0.4979615991288858,0.0006718686415967816,0.9959323809765751
2.93,0.4979682957212291,0.0006696592343269774,0.9959457446535025
2.94,0.49797497029345883,0.0006674572229766944,0.9959590643474231
2.95,0.49798162291920833,0.0006652625749514056,0.99597234020794
2.96,0.49798825367179084,0.0006630752582497983,0.9959855723836561
2.97,0.49799486262420534,0.0006608952414513396,0.9959987610225018
2.98,0.4980014498491422,0.0006587224936843687,0.9960119062716484
