time,theta,theta_dot,tau
0.0,0.004,0.4,2
0.01,0.011836000000000001,0.7836000000000001,2
0.02,0.023346724000000003,1.1510724,2
0.03,0.038373672316,1.5026948316,2
0.04,0.056761169027044006,1.8387496711044,2
0.05,0.0783564047006192,2.1595235673575197,2
0.06,0.10300947454255077,2.465306984193157,2
0.07,0.1264766371128607,2.346716257030992,-0.04838750170091899
0.08,0.14863444372982396,2.2157806616963254,-0.12209640671070332
0.09,0.16956327149254044,2.0928827762716478,-0.09701607291921022
0.1,0.18933068726160246,1.9767415769062022,-0.07734780582662815
0.11,0.20800088101104566,1.8670193749443191,-0.05859735079737405
0.12,0.22563448164635536,1.7633600635309687,-0.04089224157236515
0.13,0.24228876947114716,1.6654287824791816,-0.024167151729564296
0.14,0.2580178604971532,1.572909102600601,-0.008368258161493003
0.15,0.27287288127042486,1.4855020773271674,0.006555624401528348
0.16,0.2869021340103822,1.4029252739957392,0.020652839443505044
0.17,0.30015125262773273,1.3249118617350506,0.033969060500895765
0.18,0.3126633501238036,1.2512097496070824,0.04654743802103578
0.19,0.32447915784744047,1.1815807723636902,0.05842873876635757
0.2,0.33563715705926345,1.1157999211822969,0.06965147748949185
0.21,0.3461737032282259,1.0536546168962446,0.08025204133582964
0.22,0.3561231434619504,0.994944023372453,0.09026480737440412
0.23,0.36551792745013484,0.9394783988184465,0.09972225363543341
0.24,0.37438871227937165,0.8870784829236801,0.10865506401492464
0.25,0.382764461457927,0.8375749178555352,0.11709222738369718
0.26,0.3906725384703262,0.7908077012399187,0.12506113122198848
0.27,0.39813879516392114,0.7466256693594973,0.13258765008103968
0.28,0.4051876552529262,0.7048860089005091,0.13969622915891922
0.29,0.411842193209635,0.6654537956708803,0.14640996325842082
0.3,0.4181242087976345,0.628201558799949,0.15275067138433718
0.31,0.42405429748775486,0.5930088690120324,0.15873896721922431
0.32,0.42965191698419547,0.5597619496440596,0.16439432570641932
0.33,0.43493545007570356,0.528353309150808,0.1697351459546521
0.34,0.4399222640148118,0.49868139391082555,0.17477881066810097
0.35000000000000003,0.4446287666169275,0.4706502602115672,0.17954174229327924
0.36,0.44907045926047046,0.4441692643542927,0.18403945606440475
0.37,0.4532619869592481,0.4191527698777633,0.1882866101184466
0.38,0.45721718566879904,0.3955198709550985,0.1922970528418526
0.39,0.46094912697950274,0.3731941310703686,0.19608386760176977
0.4,0.46447016034081146,0.3521033361308718,0.1996594150063411
0.41000000000000003,0.467791952952988,0.33217926121765445,0.20303537283049344
0.42,0.47092552745519645,0.31335745022084827,0.20622277373599407
0.43,0.4738812975316779,0.29557700764814404,0.20923204090824665
0.44,0.4766691015510167,0.2787804019338788,0.21207302172414155
0.45,0.47929823434715135,0.26291327961346145,0.21475501956019727
0.46,0.4817774772447805,0.2479242897629141,0.21728682384353126
0.47000000000000003,0.48411512642614557,0.23376491813650602,0.21967673844293256
0.48,0.48631901973081265,0.22038933046670864,0.22193260849138707
0.49,0.48839656197501685,0.20775422442041824,0.22406184572729604
0.5,0.4903547488723481,0.19581868973312164,0.22607145243510907
0.51,0.4922001896330426,0.18454407606944562,0.22796804406441828
0.52,0.4939391283148735,0.17389386818309488,0.2297578705986567
0.53,0.4955774639946044,0.1638335679730854,0.23144683674400834
0.54,0.49712076982515674,0.15433058305523337,0.23304052100265915
0.55,0.4985743110400475,0.14535412148907592,0.23454419369283785
0.56,0.4999430619632484,0.13687509232008707,0.23596283397289464
0.5700000000000001,0.5012317220794089,0.128866011616057,0.23730114592549134
0.58,0.5024447312163495,0.1213009136940564,0.23856357375291282
0.59,0.5035862838888622,0.11415526725126798,0.23975431613304388
0.6,0.5046603428501509,0.10740589612887184,0.24087733978270398
0.61,0.50567065189468,0.10103090445290136,0.2419363922709974
0.62,0.5066207479537842,0.09500960591042153,0.2429350141255211
0.63,0.5075139725231093,0.08932245693250952,0.24387655026941635
0.64,0.5083534824587921,0.0839509935682865,0.2447641608269414
0.65,0.5091422601772523,0.07887777184601456,0.24560083133169364
0.66,0.5098831232915397,0.07408631142874389,0.24638938237147567
0.67,0.5105787337153643,0.06956104238245475,0.24713247870007293
0.68,0.5112316062642109,0.06528725488466476,0.24783263784522314
0.6900000000000001,0.5118441167813244,0.061251051711337205,0.24849223824240063
0.7000000000000001,0.5124185098148067,0.057439303348243174,0.24911352691745947
0.71,0.5129569058706291,0.05383960558223703,0.24969862674702126
0.72,0.5134613082649786,0.05044023943494102,0.25024954331528193
0.73,0.5139336095980785,0.04723013330999979,0.25076817139477137
0.74,0.5143755978703899,0.0441988272311362,0.25125630106672125
0.75,0.5147889622609477,0.04133643905578017,0.25171562350464205
0.76,0.5151752985864994,0.038633632555167524,0.2521477364385667
0.77,0.5155361144590754,0.0360815872576052,0.2525541493164716
0.78,0.5158728341586515,0.033671969957604464,0.25293628818105507
0.79,0.5161868032366417,0.03139690779902005,0.2532955002779246
0.8,0.5164792928650906,0.02924896284489143,0.25363305840748174
0.81,0.5167515039456128,0.027221108052210303,0.25395016503811796
0.8200000000000001,0.517004570991351,0.025306704573824796,0.2542479561913209
0.8300000000000001,0.5172395657944923,0.02349948031413132,0.2545275051119731
0.84,0.517457500891187,0.021793509669471817,0.2547898257367749
0.85,0.5176593328350629,0.020183194387586718,0.2550358759700624
0.86,0.5178459652899081,0.01866324548451856,0.255266560779708
0.87,0.5180182519515111,0.017228666160291943,0.2554827351207247
0.88,0.5181769993080956,0.015874735658448217,0.2556852066985953
0.89,0.5183229692482676,0.014596994017197077,0.25587473857948173
0.9,0.5184568815248959,0.013391227662829257,0.2560520516557341
0.91,0.5185794160828867,0.012253455799078621,0.2562178269762606
0.92,0.5186912152583689,0.011179917548222422,0.2563727079469781
0.93,0.5187928858563955,0.010167059802653592,0.2565173024109848
0.9400000000000001,0.5188850011138693,0.009211525747381225,0.2566521846123666
0.9500000000000001,0.5189681025540366,0.008310144016732648,0.256777897053168
0.96,0.5190427017385351,0.0074599184498532894,0.25689495224596803
0.97,0.5191092819226583,0.006658018412321767,0.2570038343715806
0.98,0.5191682996191804,0.005901769652214941,0.2571050008432594
0.99,0.5192201860757949,0.005188645661446714,0.25719888378619205
1.0,0.5192653486709371,0.004516259514214874,0.2572858914340276
1.01,0.5193041722325002,0.0038823561563130077,0.2573664094488022
1.02,0.5193370202837048,0.0032848051204470347,0.2574408021681829
1.03,0.5193642362201434,0.0027215936438576257,0.25750941378299474
1.04,0.5193861444218059,0.0021908201662430267,0.25757256945077023
1.05,0.5194030513036736,0.001690688186769654,0.25763057634678466
1.06,0.5194152463082784,0.0012195004604836721,0.2576837246577608
1.07,0.5194230028434312,0.0007756535152861708,0.25773228852024843
1.08,0.5194265791681492,0.00035763247179293776,0.2577765269073067
1.09,0.519426219229643,-3.599385061171215e-05,0.25781668446640993
1.1,0.5194221534540688,-0.0004065775574221578,0.25785299231064696
1.11,0.5194145994935966,-0.0007553960472286483,0.25788566876651753
1.12,0.5194037629322102,-0.001083656138630337,0.2579149200803441
1.1300000000000001,0.5193898379525187,-0.001392497969154535,0.25794094108575805
1.1400000000000001,0.51937300796573,-0.0016829986788688826,0.2579639158338567
1.1500000000000001,0.5193534462068261,-0.0019561758903886865,0.25798401818949224
1.16,0.5193313162968587,-0.0022129909967407682,0.2580014123935749
1.17,0.5193067727741825,-0.0024543522676271213,0.2580162535946494
1.18,0.5192799615963429,-0.0026811177839560297,0.2580286883519213
1.19,0.5192510206142389,-0.0028940982104061785,0.2580388551091295
1.2,0.5192200800200909,-0.0030940594147978863,0.2580468846430797
1.21,0.5191872627706637,-0.003281724942718419,0.2580529004874832
1.22,0.5191526849871086,-0.0034577783555121053,0.25805701933281977
1.23,0.5191164563327181,-0.003622865439057573,0.2580593514047246
1.24,0.5190786803698122,-0.0037775962905852133,0.2580600008209093
1.25,0.5190394548969103,-0.003922547290190611,0.25805906592876204
1.26,0.5189988722672758,-0.0040582629634451,0.2580566396241446
1.27,0.518957019689865,-0.0041852577410895625,0.2580528096527266
1.28,0.5189139795136491,-0.004304017621581044,0.2580476588942572
1.29,0.5188698294962321,-0.004415001741712996,0.2580412656318486
1.3,0.5188246430576261,-0.004518643860592628,0.25803370380537527
1.31,0.5187784895200113,-0.0046153537614861155,0.2580250432522271
1.32,0.5187314343342472,-0.004705518576406095,0.2580153499331085
1.33,0.5186835392938739,-0.004789504037327872,0.2580046861472335
1.34,0.518634862737289,-0.004867655658494095,0.2579931107336403
1.35,0.5185854597387567,-0.004940299853228034,0.25798067926327595
1.36,0.5185353822888651,-0.005007744989163396,0.25796744421905593
1.37,0.5184846794650134,-0.0050702823851681315,0.2579534551665762
1.3800000000000001,0.5184333975924821,-0.005128187253131641,0.25793875891565554
1.3900000000000001,0.5183815803966039,-0.005181719587817887,0.2579233996721835
1.4000000000000001,0.5183292691465288,-0.005231125007504364,0.257907419182306
1.41,0.5182765027910469,-0.0052766355481872,0.25789085686834934
1.42,0.5182233180869075,-0.005318470413943551,0.2578737499571042
1.43,0.5181697497200494,-0.005356836685808094,0.2578561336013423
1.44,0.5181158304201344,-0.005391929991494023,0.2578380409944334
1.45,0.5180615910687525,-0.005423935138190469,0.2578195034782862
1.46,0.5180070608016498,-0.0054530267102647495,0.25780055064636676
1.47,0.517952267105309,-0.005479369634089235,0.2577812104396495
1.48,0.5178972359081933,-0.005503119711567492,0.2577615092384453
1.49,0.517841991666951,-0.005524424124222291,0.25774147194850916
1.5,0.5177865574478563,-0.0055434219094759075,0.257721122082363
1.51,0.5177309550037508,-0.005560244410553814,0.2577004818366434
1.52,0.5176752048467353,-0.00557501570153893,0.25767957216483905
1.53,0.517619326316845,-0.005587852989034912,0.25765841284558
1.54,0.5175633376469295,-0.005598866991548511,0.25763702254804755
1.55,0.5175072560239505,-0.005608162297894346,0.2576154188934259
1.56,0.5174510976468911,-0.005615837705946689,0.2575936185121347
1.57,0.517394877781466,-0.005621986542509869,0.2575716370994403
1.58,0.5173386108118102,-0.005626696965573195,0.25754948946691436
1.59,0.5172823102893104,-0.00563005224998727,0.2575271895907201
1.6,0.5172259889787388,-0.00563213105715614,0.2575047506588134
1.61,0.5171696589018393,-0.005633007689955814,0.25748218511393983
1.62,0.5171133313785033,-0.005632752333593425,0.25745950469474044
1.6300000000000001,0.5170570170656728,-0.0056314312830645676,0.2574367204751773
1.6400000000000001,0.5170007259940914,-0.0056291071581393,0.2574138429008498
1.6500000000000001,0.5169444676030277,-0.005625839106372564,0.2573908818242515
1.6600000000000001,0.5168882507730775,-0.005621682995010933,0.2573678465370475
1.67,0.5168320838571553,-0.005616691592224397,0.25734474580146927
1.68,0.5167759747097717,-0.005610914738357818,0.2573215878794657
1.69,0.516719930714695,-0.005604399507663115,0.25729838056068777
1.7,0.5166639588110828,-0.005597190361221993,0.2572751311880205
1.71,0.5166080655181701,-0.0055893292912724156,0.2572518466830449
1.72,0.5165522569585935,-0.005580855957655717,0.25722853356891406
1.73,0.5164965388804259,-0.005571807816762275,0.25720519799223285
1.74,0.5164409166779941,-0.0055622202431826915,0.25718184574475844
1.75,0.5163853954115456,-0.005552126644851529,0.2571584822820163
1.76,0.5163299798258287,-0.005541558571683735,0.25713511274264145
1.77,0.5162746743676463,-0.005530545818247345,0.2571117419657596
1.78,0.5162194832024379,-0.0055191165208309575,0.25708837450725563
1.79,0.516164410229948,-0.005507297248997489,0.2570650146562201
1.8,0.5161094590990251,-0.005495113092286552,0.25704166644872917
1.81,0.516054633221606,-0.005482587741900601,0.257018333682985
1.82,0.5159999357859251,-0.005469743568096463,0.2569950199314436
1.83,0.515945369768994,-0.005456601693111318,0.256971728554269
1.84,0.5158909379483918,-0.00544318206021398,0.2569484627103614
1.85,0.5158366429134036,-0.005429503498820975,0.2569252253691181
1.86,0.5157824870755424,-0.005415583786118316,0.25690201932045087
1.87,0.5157284726784905,-0.005401439705186195,0.25687884718520815
1.8800000000000001,0.5156746018074908,-0.0053870870999733755,0.2568557114242721
1.8900000000000001,0.5156208763982184,-0.005372540927235969,0.25683261434743776
1.9000000000000001,0.515567298245163,-0.005357815305543789,0.2568095581221229
1.9100000000000001,0.5155138690095462,-0.005342923561684421,0.25678654478076957
1.92,0.5154605902268026,-0.005327878274368147,0.2567635762290176
1.93,0.515407463313646,-0.0053126913156603785,0.2567406542520665
1.94,0.5153544895747457,-0.005297373890020207,0.25671778052189176
1.95,0.5153016702090333,-0.005281936571248113,0.2566949566032293
1.96,0.5152490063156598,-0.005266389337340526,0.25667218395980496
1.97,0.5151964988996256,-0.005250741603424768,0.2566494639599406
1.98,0.5151441488770959,-0.005235002252968967,0.25662679788140685
1.99,0.515091957080425,-0.005219179667098549,0.25660418691730624
2.0,0.5150399242629005,-0.005203281752453624,0.2565816321800174
2.0100000000000002,0.5149880511032265,-0.0051873159673931895,0.2565591347062617
2.02,0.514936338209758,-0.005171289346849471,0.2565366954608532
2.0300000000000002,0.514884786124501,-0.005155208525706577,0.2565143153412236
2.04,0.5148333953268912,-0.0051390797609725414,0.25649199518077936
2.05,0.5147821662373644,-0.005122908952681148,0.25646973575270804
2.06,0.5147310992207279,-0.00510670166364755,0.25644753777331397
2.07,0.5146801945893466,-0.005090463138140344,0.2564254019051705
2.08,0.5146294526061512,-0.005074198319527211,0.25640332876011085
2.09,0.5145788734874823,-0.005057911866893238,0.25638131890234006
2.1,0.5145284574057736,-0.00504160817087601,0.25635937285044863
2.11,0.5144782044920895,-0.005025291368407069,0.2563374910810563
2.12,0.5144281148385208,-0.005008965356870386,0.25631567403004674
2.13,0.5143781885004474,-0.004992633807339307,0.2562939220955417
2.14,0.5143284254986766,-0.004976300177074298,0.25627223564008084
2.15,0.514278825821462,-0.004959967721462509,0.25625061499198243
2.16,0.5142293894264109,-0.004943639505105356,0.25622906044822424
2.17,0.5141801162422862,-0.004927318412476021,0.2562075722753311
2.18,0.5141310061707075,-0.004911007157869661,0.2561861507116797
2.19,0.5140820590877592,-0.004894708294834148,0.25616479596895736
2.2,0.5140332748455079,-0.004878424225127407,0.25614350823344645
2.21,0.513984653273437,-0.004862157207089944,0.2561222876679158
2.22,0.5139361941798005,-0.004845909363654142,0.2561011344124795
2.23,0.5138878973529024,-0.004829682689806568,0.2560800485864073
2.24,0.5138397625623051,-0.00481347905973044,0.25605903028887056
2.25,0.5137917895599697,-0.0047973002335421336,0.256038079600148
2.2600000000000002,0.5137439780813343,-0.004781147863544743,0.2560171965832634
2.27,0.5136963278463313,-0.0047650235002949844,0.255996381284207
2.2800000000000002,0.513648838560349,-0.004748928598228319,0.25597563373344
2.29,0.5136015099151388,-0.004732864521025892,0.255954953946541
2.3000000000000003,0.5135543415896724,-0.004716832546633365,0.2559343419253268
2.31,0.5135073332509518,-0.004700833872057652,0.25591379765838806
2.32,0.5134604845547731,-0.0046848696178622305,0.25589332112204144
2.33,0.5134137951464487,-0.00466894083243663,0.2558729122809421
2.34,0.5133672646614886,-0.004653048496002077,0.2558525710889098
2.35,0.5133208927262443,-0.004637193524434047,0.2558322974893841
2.36,0.513274678958516,-0.00462137677283192,0.25581209141624595
2.37,0.5132286229681267,-0.004605599038930086,0.25579195279420075
2.38,0.5131827243574639,-0.004589861066269218,0.25577188153958164
2.39,0.5131369827219912,-0.004574163547279807,0.25575187756042517
2.4,0.5130913976507301,-0.00455850712610164,0.25573194075743044
2.41,0.5130459687267175,-0.00454289240126331,0.25571207102433635
2.42,0.5130006955274342,-0.00452731992832246,0.25569226824781033
2.43,0.5129555776252127,-0.004511790222153367,0.2556725323088981
2.44,0.5129106145876191,-0.004496303759360687,0.2556528630821391
2.45,0.5128658059778161,-0.004480860980301038,0.25563326043723567
2.46,0.5128211513549039,-0.004465462291217026,0.2556137242382679
2.47,0.5127766502742427,-0.004450108066120872,0.2555942543446893
2.48,0.512732302287757,-0.00443479864857127,0.2555748506116452
2.49,0.5126881069442223,-0.00441953435347211,0.25555551288966005
2.5,0.5126440637895363,-0.004404315468594111,0.25553624102580674
2.5100000000000002,0.5126001723669744,-0.004389142256192025,0.25551703486305977
2.52,0.5125564322174303,-0.004374014954406702,0.2554978942411754
2.5300000000000002,0.5125128428796443,-0.004358933778600182,0.2554788189968664
2.54,0.512469403890417,-0.004343898922732203,0.255459808963442
2.5500000000000003,0.512426114784812,-0.004328910560492027,0.25544086397186294
2.56,0.5123829750963471,-0.004313968846487947,0.255421983850328
2.57,0.5123399843571738,-0.00429907391733435,0.25540316842464394
2.58,0.5122971420982468,-0.004284225892689651,0.2553844175183435
2.59,0.512254447849485,-0.00426942487618459,0.25536573095311077
2.6,0.5122119011399211,-0.004254670956394867,0.2553471085484542
2.61,0.5121695014978447,-0.004239964207641022,0.2553285501224508
2.62,0.5121272484509359,-0.004225304690880226,0.2553100554911981
2.63,0.5120851415263916,-0.004210692454432384,0.25529162446953113
2.64,0.5120431802510447,-0.004196127534693027,0.2552732568710061
2.65,0.5120013641514758,-0.00418160995688469,0.2552549525076254
2.66,0.5119596927541192,-0.0041671397356546,0.2552367111905114
2.67,0.5119181655853621,-0.004152716875713468,0.25521853272963435
2.68,0.5118767821716381,-0.004138341372398201,0.25520041693411466
2.69,0.5118355420395156,-0.004124013212253273,0.25518236361206403
2.7,0.5117944447157806,-0.004109732373504603,0.2551643725710505
2.71,0.5117534897275148,-0.0040954988265826985,0.2551464436177989
2.72,0.5117126766021689,-0.004081312534585201,0.25512857655842835
2.73,0.511672004867632,-0.004067173453697836,0.25511077119860426
2.74,0.5116314740522958,-0.004053081533618352,0.25509302734347383
2.75,0.5115910836851166,-0.0040390367179125915,0.255075344797953
2.7600000000000002,0.5115508332956722,-0.004025038944443759,0.25505772336631993
2.77,0.5115107224142152,-0.0040110881456897115,0.2550401628527176
2.7800000000000002,0.511470750571725,-0.003997184249032315,0.25502266306125665
2.79,0.5114309172999535,-0.003983327177152385,0.25500522379545565
2.8000000000000003,0.5113912221314713,-0.0039695168482195235,0.25498784485921056
2.81,0.5113516645997087,-0.003955753176256649,0.2549705260559061
2.82,0.5113122442389949,-0.0039420360713837595,0.2549532671889675
2.83,0.5112729605845948,-0.003928365440005677,0.2549360680621111
2.84,0.5112338131727437,-0.003914741185105409,0.2549189284787976
2.85,0.5111948015406791,-0.003901163206466541,0.25490184824254514
2.86,0.5111559252266707,-0.003887631400833847,0.2548848271572097
2.87,0.5111171837700493,-0.0038741456621405605,0.25486786502663505
2.88,0.5110785767112324,-0.0038607058816977793,0.25485096165481047
2.89,0.5110401035917488,-0.0038473119483579013,0.254834116845976
2.9,0.511001763954262,-0.0038339637486770055,0.2548173304046073
2.91,0.5109635573425912,-0.003820661167078099,0.25480060213539013
2.92,0.5109254833017312,-0.0038074040860063057,0.254783931843239
2.93,0.5108875413778708,-0.0037941923860316923,0.25476731933353736
2.94,0.5108497311184104,-0.003781025946044093,0.2547507644116671
2.95,0.5108120520719774,-0.003767904643297982,0.2547342668837269
2.96,0.5107745037884412,-0.0037548283536158696,0.2547178265557397
2.97,0.5107370858189273,-0.003741796951392363,0.25470144323461497
2.98,0.5106997977158291,-0.003728810309825204,0.254685116727021
