time,theta,theta_dot,tau
0.0,0.002,0.2,2
0.01,0.005956,0.3956,2
0.02,0.011820968,0.5864967999999999,2
0.03,0.019544994704,0.7724026704,2
0.04,0.029075450884512,0.9530456180512,2
0.05,0.04035714703964474,1.1281696155132737,2
0.06,0.05333249497759553,1.2975347937950792,2
0.07,0.06794167096683212,1.4609175989236585,2
0.08,0.08412278009435031,1.618110912751819,2
0.09,0.10181202147912943,1.7689241384779124,2
0.1,0.12094385399325472,1.9131832514125282,2
0.11,0.141451162149111,2.0507308155856268,2
0.12,0.16235039702072157,2.0899234871610584,1.0849752031696624
0.13,0.18280274616030068,2.045234913957909,0.2957997594421631
0.14,0.20241783470142208,1.9615088541121388,-0.06260812334551957
0.15,0.22103311353849775,1.8615278837075682,-0.20267226382043546
0.16,0.2386006914834912,1.7567577944993453,-0.23332908826371934
0.17,0.25512935043689705,1.6528658953405873,-0.21036604972072936
0.18,0.2706548982527882,1.5525547815891132,-0.16227925757282868
0.19,0.2852250697027385,1.457017144995025,-0.1035556131174813
0.2,0.29889189250366843,1.3666822800929954,-0.04149508061581475
0.21,0.3117078804341885,1.2815987930520092,0.020285370616073273
0.22,0.32372418522509183,1.2016304790903305,0.08005237986199099
0.23,0.33498974793714764,1.1265562712055817,0.13703238742076174
0.24,0.34555095746977715,1.0561209532629532,0.19093757068912698
0.25,0.35545156367549097,0.99006062057138,0.24172277867641334
0.26,0.3647327157293348,0.9281152053843842,0.2894610995952993
0.27,0.3734330596529851,0.8700343923650337,0.3342803423420415
0.28,0.3815888613626205,0.8155801709635347,0.3763307837639882
0.29,0.389234138268684,0.7645276906063541,0.4157689533461415
0.3,0.3964007909942122,0.7166652725528185,0.4527496341232835
0.31,0.4031187311467671,0.6717940152554888,0.4874220635256905
0.32,0.4094160033062984,0.6297272159531272,0.5199282723210161
0.33,0.4153189005197427,0.5902897213444294,0.5504025037162434
0.34,0.42085207315818307,0.5533172638440372,0.5789711703044498
0.35000000000000003,0.42603863126887564,0.5186558110692565,0.6057530713373662
0.36,0.43090024068358024,0.4861609414704571,0.6308597287636082
0.37,0.43545721319887165,0.4556972515291422,0.6543957702481031
0.38,0.43972859116063556,0.42713779617639136,0.6764593231760632
0.39,0.44373222678281377,0.40036356221781977,0.6971424019708334
0.4,0.44748485651940284,0.3752629736589066,0.7165312804200599
0.41000000000000003,0.4510021707936863,0.35173142742834906,0.7347068454650119
0.42,0.4542988793722067,0.32967085785203853,0.7517449313099371
0.43,0.45738877265431094,0.30898932821042185,0.7677166338986541
0.44,0.4602847791318426,0.28960064775316785,0.782688606378166
0.45,0.4629990192579853,0.2714240126142667,0.796723336425307
0.46,0.4655428559494989,0.25438366915135713,0.8098794064097283
0.47000000000000003,0.4679269419326671,0.2384085983168221,0.8222117373839191
0.48,0.47016126413017495,0.2234322197507827,0.8337718178683047
0.49,0.4722551852738325,0.20939211436575422,0.8446079183602215
0.5,0.4742174829165175,0.19622976426850014,0.8547652924482749
0.51,0.4760563860058781,0.18389030893605945,0.8642863653623281
0.52,0.4777796091721828,0.17232231663047698,0.8732109107431432
0.53,0.4793943848731818,0.1614775700999008,0.8815762163646992
0.54,0.48090749352991474,0.15131086567329508,0.8894172395002866
0.55,0.48232529177903155,0.14177982491168004,0.8967667525783383
0.56,0.48365373895934294,0.13284471803113934,0.9036554797349923
0.5700000000000001,0.48489842194296184,0.12446829836189066,0.9101122248324269
0.58,0.48606457841449824,0.11661564715364092,0.9161639914758044
0.59,0.4871571186953044,0.10925402808062026,0.9218360955295182
0.6,0.4881806462037048,0.10235275084003759,0.9271522706009061
0.61,0.4891394766364612,0.09588304327563751,0.9321347669314164
0.62,0.4900376559513966,0.08981793149354295,0.9368044441071042
0.63,0.4908789772261049,0.08413212747083008,0.9411808579743732
0.64,0.4916669964629909,0.07880192368859842,0.9452823421240593
0.65,0.49240504740649554,0.07380509435046302,0.9491260842823475
0.66,0.4930962554342443,0.06912080277487705,0.952728197927224
0.67,0.4937435505799989,0.06472951457545971,0.9561037894292905
0.68,0.49434967974267413,0.06061291626752213,0.9592670209957139
0.6900000000000001,0.4949172181322914,0.05675383896172611,0.9622311696808925
0.7000000000000001,0.49544858000055986,0.05313618682684568,0.9650086827081237
0.71,0.49594602870079624,0.04974487002363799,0.9676112293344119
0.72,0.4964116861190996,0.04656574183033432,0.9700497494732834
0.73,0.49684754151607746,0.04358553969778679,0.9723344992787908
0.74,0.4972554598159642,0.04079182998867345,0.9744750938805788
0.75,0.4976371893776692,0.03817295617050251,0.9764805474479537
0.76,0.4979943692801347,0.035717990246548266,0.9783593107498965
0.77,0.4983285361523583,0.03341668722235908,0.9801193063676872
0.78,0.49864113057653936,0.031259442418108616,0.9817679617066837
0.79,0.4989335030910286,0.029237251448924192,0.9833122399448562
0.8,0.499206919818093,0.027341672706440907,0.9847586690470091
0.81,0.4994625677399456,0.02556479218525914,0.9861133689656565
0.8200000000000001,0.4997015596450232,0.023899190507766874,0.9873820771420203
0.8300000000000001,0.49992493876512195,0.022337912009871706,0.9885701724126481
0.84,0.5001336831227111,0.020874435758912933,0.9896826974226305
0.85,0.5003287096065405,0.019502648382939344,0.990724379637469
0.86,0.500510877792522,0.01821681859815349,0.9916996510418103
0.87,0.500680993525806,0.01701157332839322,0.992612666607072
0.88,0.5008398122789773,0.01588187531713797,0.993467321604738
0.89,0.5009880423003653,0.014823002138799498,0.9942672678379976
0.9,0.5011263475655828,0.013830526521752115,0.9950159288580167
0.91,0.501255350544595,0.012900297901216492,0.9957165142301598
0.92,0.5013756347958458,0.012028425125072902,0.9963720329079975
0.93,0.5014877473982514,0.011211260240562534,0.9969853057716025
0.9400000000000001,0.5015922012311946,0.010445383294319164,0.9975589773821816
0.9500000000000001,0.5016894771120185,0.009727588082390612,0.9980955270019676
0.96,0.5017800257999276,0.009054868790911705,0.998597278925726
0.97,0.5018642698746445,0.008424407471690052,0.999066412165821
0.98,0.5019426054976508,0.007833562300626803,0.9995049695329945
0.99,0.50201540406335,0.007279856569915985,0.9999148661483188
1.0,0.502083013747033,0.006760968368303641,1.0002978974245598
1.01,0.5021457609560958,0.0062747209062761185,1.0006557465474515
1.02,0.5022039516905552,0.0058190734459415,1.0009899914901006
1.03,0.5022578728185332,0.005392112797802292,1.0013021115889067
1.04,0.502307793272023,0.004992045348984894,1.0015934937084527
1.05,0.5023539651679196,0.004617189589662925,1.0018654380206233
1.06,0.5023966248589861,0.004265969106639985,1.0021191634235425
1.07,0.502435993919134,0.003936906014784665,1.002355812620747
1.08,0.5024722800671242,0.003628614799028292,1.002576456883661
1.09,0.5025056780325365,0.003339796541230596,1.002782100516077
1.1,0.5025363703676149,0.003069233507837739,1.0029736850393907
1.11,0.5025645282083737,0.002815784075885826,1.0031520931172782
1.12,0.5025903119881341,0.0025783779760373896,1.0033181522334402
1.1300000000000001,0.502613872106464,0.002356011832994183,1.0034726381410435
1.1400000000000001,0.5026353495563102,0.0021477449846130942,1.003616278095716
1.1500000000000001,0.5026548765119333,0.0019526955623180037,1.003749753886592
1.16,0.5026725768800984,0.0017700368165066665,1.003873704678217
1.17,0.5026885668168142,0.0015989936715856206,1.0039887296742875
1.18,0.5027029552117779,0.0014388394963669132,1.0040953906157584
1.19,0.5027158441425404,0.0012888930762562107,1.0041942141217222
1.2,0.5027273293002879,0.0011485157747389968,1.00428569388516
1.21,0.50273750038901,0.0010171088722156845,1.0043702927302904
1.22,0.502746441499722,0.000894111071204891,1.0044484445423552
1.23,0.5027542314612965,0.00077899615744403,1.0045205560760764
1.24,0.5027609441693683,0.000671270807185516,1.0045870086514967
1.25,0.5027666488946837,0.0005704725315397855,1.0046481597437165
1.26,0.5027714105721764,0.0004761677492752096,1.0047043444730297
1.27,0.5027752900719773,0.0003879499800879053,1.0047558770023348
1.28,0.5027783444534852,0.0003054381507966845,1.0048030518470599
1.29,0.502780627203559,0.00022827500737665078,1.0048461451029296
1.3,0.5027821884598216,0.00015612562626309982,1.0048854155974578
1.31,0.5027830752200085,8.867601869028833e-05,1.0049211059691676
1.32,0.5027833315382311,2.563182225354269e-05,1.0049534436793877
1.33,0.5027829987089738,-3.328292572833255e-05,1.004982641961094
1.34,0.5027821154395915,-8.83269382269832e-05,1.0050089007078153
1.35,0.5027807180120255,-0.00013974275659643228,1.0050324073078432
1.36,0.5027788404344122,-0.00018775776132278618,1.0050533374254682
1.37,0.5027765145832165,-0.00023258511957240788,1.0050718557340637
1.3800000000000001,0.5027737703364811,-0.0002744246735389796,1.0050881166028527
1.3900000000000001,0.5027706356987486,-0.00031346377325478924,1.0051022647410963
1.4000000000000001,0.5027671369181749,-0.0003498780573655532,1.0051144358017385
1.41,0.5027632985963241,-0.0003838321850792955,1.0051247569477393
1.42,0.5027591437910999,-0.000415480522424709,1.0051333473821782
1.43,0.5027546941132444,-0.0004449677855469277,1.0051403188464927
1.44,0.502749969816806,-0.000472429643835874,1.00514577608649
1.45,0.5027449898839522,-0.0004979932853805643,1.0051498172893978
1.46,0.5027397721044818,-0.0005217779470333901,1.0051525344943
1.47,0.5027343331503682,-0.0005438954113615764,1.0051540139762751
1.48,0.5027286886456424,-0.0005644504725798733,1.0051543366062812
1.49,0.5027228532319094,-0.0005835413732976398,1.005153578189591
1.5,0.5027168406297692,-0.0006012602140166119,1.0051518097819694
1.51,0.502710663696399,-0.0006176933370119193,1.0051490979867819
1.52,0.5027043344795368,-0.0006329216862290639,1.0051455052332243
1.53,0.5026978642680898,-0.0006470211446904445,1.005141090037214
1.54,0.5026912636395818,-0.0006600628507995405,1.0051359072461505
1.55,0.5026845425046328,-0.0006721134949047288,1.005130008267952
1.56,0.5026777101486599,-0.0006832355972848077,1.0051234412864838
1.57,0.5026707752709719,-0.0006934877687989212,1.0051162514627217
1.58,0.5026637460214196,-0.0007029249552350333,1.005108481123823
1.59,0.5026566300347559,-0.0007115986663730519,1.005100169940412
1.6,0.5026494344628485,-0.0007195571907429296,1.0050913550925384
1.61,0.5026421660048789,-0.0007268457969636973,1.0050820714253408
1.62,0.5026348309356539,-0.0007335069224968112,1.005072351595034
1.6300000000000001,0.502627435132148,-0.0007395803505857265,1.0050622262059192
1.6400000000000001,0.5026199840983863,-0.0007451033761743095,1.005051723938293
1.6500000000000001,0.5026124829887723,-0.0007501109614011445,1.0050408716692694
1.6600000000000001,0.5026049366299579,-0.0007546358814341889,1.0050296945849337
1.67,0.5025973495413465,-0.0007587088611407819,1.005018216286563
1.68,0.5025897259543138,-0.0007623587032613386,1.0050064588892593
1.69,0.5025820698302287,-0.0007656124085138535,1.0049944431154503
1.7,0.5025743848773461,-0.0007684952882662619,1.0049821883812304
1.71,0.502566674566645,-0.0007710310700997079,1.0049697128787045
1.72,0.5025589421466771,-0.0007732419967996716,1.0049570336522706
1.73,0.5025511906574852,-0.0007751489191862014,1.0049441666701289
1.74,0.5025434229436543,-0.0007767713830925825,1.0049311268920693
1.75,0.5025356416665449,-0.0007781277109445693,1.00491792833217
1.76,0.5025278493157626,-0.0007792350782297717,1.0049045841180488
1.77,0.5025200482199107,-0.0007801095851801596,1.0048911065463753
1.78,0.5025122405566709,-0.0007807663239868299,1.0048775071347187
1.79,0.5025044283622527,-0.0007812194418183081,1.0048637966702296
1.8,0.5024966135402541,-0.0007814821998615427,1.0048499852557093
1.81,0.5024887978699668,-0.0007815670287264974,1.0048360823518863
1.82,0.5024809830141632,-0.0007814855803614005,1.0048220968178392
1.83,0.5024731705263961,-0.0007812487767189056,1.0048080369486792
1.84,0.5024653618578423,-0.0007808668553799955,1.0047939105108374
1.85,0.5024575583637189,-0.0007803494123437546,1.004779724774971
1.86,0.5024497613092976,-0.0007797054421268476,1.004765486547138
1.87,0.502441971875544,-0.0007789433753701488,1.004751202197737
1.8800000000000001,0.5024341911644032,-0.0007780711140693161,1.0047368776890222
1.8900000000000001,0.5024264202037568,-0.0007770960646365218,1.0047225186003206
1.9000000000000001,0.502418659952068,-0.0007760251688764527,1.004708130152187
1.9100000000000001,0.5024109113027377,-0.0007748649330285892,1.0046937172288395
1.92,0.5024031750881878,-0.0007736214549940487,1.0046792843992152
1.93,0.5023954520836892,-0.0007723004498580141,1.0046648359367372
1.94,0.5023877430109508,-0.0007709072738354236,1.0046503758376326
1.95,0.5023800485414839,-0.0007694469466894379,1.0046359078385945
1.96,0.502372369299756,-0.0007679241727811356,1.004621435432713
1.97,0.5023647058661483,-0.0007663433607729516,1.0046069618850377
1.98,0.502357058779727,-0.0007647086421291013,1.0045924902465806
1.99,0.5023494285408427,-0.0007630238884262882,1.0045780233680563
2.0,0.5023418156135665,-0.0007612927276278865,1.0045635639119843
2.0100000000000002,0.5023342204279735,-0.0007595185592989258,1.004549114364897
2.02,0.5023266433822847,-0.0007577045688803392,1.004534677048273
2.0300000000000002,0.5023190848448738,-0.0007558537411011907,1.004520254128585
2.04,0.5023115451561487,-0.0007539688725012135,1.004505847627527
2.05,0.5023040246303166,-0.0007520525832119191,1.0044914594306902
2.06,0.5022965235570367,-0.0007501073279958787,1.0044770912961514
2.07,0.502289042202971,-0.0007481354065648688,1.0044627448627843
2.08,0.502281580813238,-0.0007461389732950336,1.0044484216573273
2.09,0.5022741396127749,-0.0007441200463146375,1.004434123101621
2.1,0.5022667188076148,-0.000742080516010128,1.004419850519332
2.11,0.5022593185860845,-0.0007400221530255141,1.0044056051418737
2.12,0.5022519391199269,-0.0007379466157602805,1.0043913881142164
2.13,0.5022445805653533,-0.0007358554573674775,1.00437720050063
2.14,0.5022372430640297,-0.00073375013235573,1.0043630432893504
2.15,0.5022299267440021,-0.0007316320027563701,1.004348917397582
2.16,0.5022226317205631,-0.0007295023438976851,1.0043348236760399
2.17,0.5022153580970646,-0.0007273623498472089,1.0043207629128514
2.18,0.5022081059656799,-0.0007252131384774915,1.004306735837857
2.19,0.5022008754081174,-0.0007230557562485404,1.0042927431259538
2.2,0.5021936664962908,-0.0007208911826596595,1.004278785400874
2.21,0.5021864792929462,-0.0007187203344538859,1.0042648632381075
2.22,0.5021793138522509,-0.0007165440695396305,1.0042509771681443
2.23,0.5021721702203441,-0.0007143631906829692,1.0042371276791604
2.24,0.5021650484358547,-0.0007121784489327917,1.0042233152200535
2.25,0.502157948530386,-0.0007099905468817488,1.0042095402024334
2.2600000000000002,0.5021508705289689,-0.0007078001417052879,1.0041958030031601
2.27,0.5021438144504892,-0.000705607847971583,1.0041821039669339
2.2800000000000002,0.5021367803080856,-0.0007034142403500129,1.0041684434075997
2.29,0.5021297681095248,-0.0007012198560792756,1.0041548216108087
2.3000000000000003,0.5021227778575514,-0.0006990251973317415,1.004141238835309
2.31,0.5021158095502175,-0.0006968307333917108,1.0041276953150369
2.32,0.5021088631811902,-0.000694636902735994,1.0041141912603138
2.33,0.5021019387400407,-0.0006924441149486911,1.0041007268597062
2.34,0.5020950362125154,-0.0006902527525315656,1.0040873022812629
2.35,0.5020881555807892,-0.0006880631726137439,1.0040739176737026
2.36,0.5020812968237038,-0.0006858757085371576,1.0040605731678216
2.37,0.5020744599169904,-0.0006836906713441543,1.0040472688776303
2.38,0.5020676448334787,-0.0006815083511797311,1.0040340049013563
2.39,0.5020608515432926,-0.0006793290186002871,1.0040207813225157
2.4,0.5020540800140346,-0.0006771529257950033,1.004007598210918
2.41,0.5020473302109569,-0.0006749803077635659,1.0039944556232245
2.42,0.5020406020971232,-0.0006728113833687028,1.0039813536043098
2.43,0.5020338956335596,-0.0006706463563628291,1.0039682921876314
2.44,0.5020272107793963,-0.0006684854163357552,1.0039552713961173
2.45,0.5020205474920003,-0.000666328739594006,1.003942291242943
2.46,0.5020139057271003,-0.0006641764900086317,1.0039293517319356
2.47,0.5020072854389023,-0.0006620288198005791,1.0039164528582794
2.48,0.5020006865801997,-0.0006598858702563643,1.0039035946092867
2.49,0.5019941091024754,-0.0006577477724268016,1.0038907769646437
2.5,0.5019875529559976,-0.0006556146477770181,1.0038779998969634
2.5100000000000002,0.5019810180899099,-0.0006534866087729835,1.0038652633724803
2.52,0.5019745044523152,-0.0006513637594733041,1.003852567351062
2.5300000000000002,0.5019680119903549,-0.000649246196027779,1.003839911787191
2.54,0.5019615406502829,-0.0006471340072052673,1.0038272966297295
2.5500000000000003,0.5019550903775344,-0.0006450272748434166,1.0038147218227431
2.56,0.5019486611167915,-0.0006429260742866244,1.003802187305668
2.57,0.5019422528120434,-0.0006408304748106092,1.0037896930134858
2.58,0.5019358654066435,-0.0006387405399921149,1.0037772388773096
2.59,0.5019294988433628,-0.0006366563280636934,1.0037648248245727
2.6,0.5019231530644401,-0.0006345778922719298,1.0037524507790305
2.61,0.5019168280116283,-0.0006325052811884819,1.0037401166612603
2.62,0.5019105236262384,-0.0006304385389864815,1.003727822389039
2.63,0.501904239849181,-0.0006283777057432034,1.0037155678771124
2.64,0.5018979766210041,-0.0006263228176913978,1.0037033530377313
2.65,0.5018917338819293,-0.0006242739074745303,1.0036911777806385
2.66,0.5018855115718859,-0.000622231004346045,1.0036790420136485
2.67,0.5018793096305416,-0.0006201941344277801,1.0036669456420853
2.68,0.5018731279973329,-0.0006181633208702393,1.0036548885697731
2.69,0.5018669666114922,-0.0006161385840644891,1.0036428706985492
2.7,0.501860825412074,-0.0006141199418255013,1.0036308919285615
2.71,0.5018547043379786,-0.0006121074095348606,1.0036189521586893
2.72,0.5018486033279755,-0.0006101010003072766,1.0036070512863262
2.73,0.501842522320724,-0.0006081007251479238,1.0035951892074833
2.74,0.5018364612547933,-0.0006061065930724347,1.0035833658171733
2.75,0.5018304200686808,-0.0006041186112489645,1.0035715810092067
2.7600000000000002,0.5018243987008298,-0.0006021367851006638,1.0035598346765948
2.77,0.5018183970896455,-0.0006001611184342654,1.0035481267113036
2.7800000000000002,0.50181241517351,-0.0005981916135394933,1.0035364570045517
2.79,0.5018064528907972,-0.0005962282712905814,1.0035248254468012
2.8000000000000003,0.5018005101798848,-0.0005942710912411537,1.0035132319278306
2.81,0.5017945869791678,-0.0005923200716976757,1.0035016763369562
2.82,0.5017886832270697,-0.0005903752098096943,1.003490158562876
2.83,0.5017827988620531,-0.0005884365016631627,1.0034786784936427
2.84,0.5017769338226299,-0.0005865039423218294,1.003467236017187
2.85,0.5017710880473708,-0.0005845775259066639,1.0034558310209472
2.86,0.5017652614749141,-0.0005826572456720842,1.0034444633919062
2.87,0.5017594540439736,-0.0005807430940471687,1.0034331330169428
2.88,0.5017536656933466,-0.0005788350626980283,1.003421839782629
2.89,0.5017478963619209,-0.0005769331425748354,1.0034105835753855
2.9,0.501742145988681,-0.000575037323977305,1.003399364281302
2.91,0.5017364145127153,-0.000573147596566685,1.0033881817866728
2.92,0.5017307018732209,-0.0005712639494450707,1.0033770359773335
2.93,0.5017250080095091,-0.0005693863711794518,1.003365926739209
2.94,0.5017193328610108,-0.0005675148498319555,1.0033548539582573
2.95,0.5017136763672808,-0.0005656493729957286,1.0033438175204175
2.96,0.5017080384680023,-0.0005637899278529796,1.00333281731139
2.97,0.5017024191029905,-0.0005619365011729144,1.0033218532172345
2.98,0.5016968182121969,-0.0005600890793581432,1.003310925123894
2.99,0.5016912357357122,-0.0005582476484698823,1.0033000329174049
3.0,0.5016856716137696,-0.0005564121942480943,1.0032891764839482
