time,theta,theta_dot,tau
0.0,0.01,1.0,5
0.01,0.029880000000000004,1.988,5
0.02,0.058120663999999995,2.824066399999999,4.309611999999996
0.03,0.08461517605920002,2.6494512059200024,-0.6737519863999832
0.04,0.1095675668549258,2.4952390795725785,-0.5539728953819196
0.05,0.1330664171205803,2.3498850265654494,-0.4924407442020904
0.06,0.1551962607916408,2.2129843671060514,-0.4339426288481363
0.07,0.17603670496888318,2.0840444177242383,-0.3788542677621223
0.08,0.195662728261081,1.9626023292197812,-0.32697151666719115
0.09,0.21414494977236073,1.8482221511279737,-0.27810804573696757
0.1,0.2315498825777958,1.7404932805435078,-0.23208829559357014
0.11,0.24794017245983685,1.639028988204106,-0.18874691509203778
0.12,0.2633748227639333,1.543465030409645,-0.14792816710226298
0.13,0.27790940618040244,1.4534583416469105,-0.10948536952925636
0.14,0.29159626421269064,1.3686858032288205,-0.07328036882770128
0.15,0.30448469504797626,1.288843083528564,-0.039183044127150346
0.16,0.31662113050443463,1.2136435456458368,-0.007070840189231653
0.17,0.32804930269027993,1.1428172185845316,0.023171672480200023
0.18,0.33881040097277093,1.0761098282491004,0.05165321194235073
0.19,0.34894321982058646,1.013281884781554,0.07847617504749316
0.2,0.3584842980502201,0.9541078229633619,0.1037370049687043
0.21,0.36746804997618815,0.898375192596809,0.12752653736562358
0.22,0.3759268889357877,0.8458838959599521,0.1499303264217442
0.23,0.3838913436317685,0.7964454695980838,0.1710289519244439
0.24,0.3913901677105084,0.7498824078739875,0.19089830849119105
0.25,0.39845044296899673,0.7060275258488323,0.20960987797843167
0.26,0.40509767656106743,0.6647233592070727,0.22723098605264003
0.27,0.4113558925517818,0.6258215990714355,0.243825043843235
0.28,0.41724771814857503,0.5891825596793246,0.2594517755447989
0.29,0.4227944649186766,0.5546746770101564,0.2741674327867001
0.3,0.42801620528431505,0.5221740365638423,0.2880249965376138
0.31,0.4329318445702717,0.49156392859566134,0.3010743672716023
0.32,0.43755918886238176,0.46273442921100777,0.3133625440767869
0.33,0.44191500892054697,0.43558200581652323,0.3249337933505094
0.34,0.44601510037566133,0.4100091455114369,0.3358298076859416
0.35000000000000003,0.449874340426514,0.3859240050852634,0.34608985552036575
0.36,0.45350674124017104,0.3632400813657072,0.35575092208299597
0.37,0.45692550024750533,0.3418759007334267,0.36484784214705424
0.38,0.46014304751439855,0.3217547266893237,0.3734134250636616
0.39,0.463171090358646,0.30280428442474344,0.3814785725259635
0.4,0.46602065537270476,0.2849565014058777,0.38907238948555434
0.41000000000000003,0.4687021280031193,0.2681472630414528,0.39622228862087416
0.42,0.4712252898286839,0.25231618255646343,0.40295408873024496
0.43,0.4735993536711463,0.23740638424624,0.4092921074053899
0.44,0.4758329966644728,0.22336429933264867,0.41525924831550176
0.45,0.4779343914013715,0.2101394736898697,0.4208770834172104
0.46,0.47991123526886653,0.19768438674950176,0.4261659303840253
0.47000000000000003,0.4817707780782171,0.18595428093505717,0.43114492553411865
0.48,0.48351984808835374,0.17490700101366383,0.43583209251800326
0.49,0.4851648765162364,0.16450284278826474,0.4402444070120415
0.5,0.4867119206221096,0.15470441058731904,0.4443978576509211
0.51,0.48816668545251435,0.14547648304047384,0.44830750341724945
0.52,0.48953454431909815,0.1367858866583828,0.4519875276940828
0.53,0.4908205580867282,0.1286013767630049,0.4554512891751279
0.54,0.49202949334013735,0.12089352534091585,0.45871136981443317
0.55,0.4931658394943093,0.11363461541719788,0.4617796199885933
0.56,0.49423382491001616,0.1067985415706833,0.4646672010325963
0.5700000000000001,0.49523743207235177,0.10036071623356224,0.467384625302945
0.58,0.49618041188674183,0.09429798143900905,0.4699417939112639
0.59,0.49706629714374184,0.08858852570000225,0.4723480322636583
0.6,0.497898415200953,0.0832118057211165,0.47461212353431315
0.61,0.4986798999275748,0.07814847266217471,0.4767423401922999
0.62,0.49941370295446635,0.07338030268915707,0.4787464736955953
0.63,0.5001026042700971,0.06889013156307092,0.48063186245849343
0.64,0.5007492222004173,0.06466179303201439,0.482405418192968
0.65,0.5013560228084706,0.06068006080533431,0.48407365071861763
0.66,0.5019253287474856,0.05693059390150896,0.4856426913296106
0.67,0.5024593275992226,0.05339988517370287,0.4871183148035306
0.68,0.5029600797275049,0.05007521282822682,0.4885059601305275
0.6900000000000001,0.5034295256751227,0.046944594761778126,0.48981075003667274
0.7000000000000001,0.5038694931306598,0.043996745553710484,0.4910375093728734
0.71,0.5042817034902483,0.041221035958848476,0.49219078243403525
0.72,0.5046677780378037,0.03860745475554141,0.4932748492716553
0.73,0.5050292437659234,0.03614657281197095,0.4942937410577285
0.74,0.505367538858341,0.03382950924175355,0.49525125455543495
0.75,0.5056840178536139,0.03164789952729451,0.49615096574813344
0.76,0.5059799565085806,0.029593865496673095,0.4969962426768716
0.77,0.5062565563790409,0.027659987046022468,0.49779025753016115
0.78,0.5065149491341018,0.02583927550608796,0.4985359980316695
0.79,0.5067562006196761,0.024125148557428096,0.49923627816610683
0.8,0.5069813146857157,0.022511406603960435,0.49989374828020916
0.81,0.507191236790919,0.020992210520332986,0.5005109045977765
0.8200000000000001,0.5073868573978499,0.019562060693095348,0.5010900981807475
0.8300000000000001,0.5075690151706543,0.018215777280443265,0.5016335433692443
0.84,0.507738499986852,0.01694848161976835,0.5021433257313019
0.85,0.5078960557740141,0.01575557871620473,0.5026214095500223
0.86,0.5080423831815077,0.014632740749360282,0.5030696448756021
0.87,0.508178142096897,0.013575891538931715,0.5034897741668329
0.88,0.5083039540160339,0.012581191913690368,0.503883438547637
0.89,0.5084204042753436,0.011645025930977502,0.504252183698154
0.9,0.5085280441543194,0.010763987897576852,0.5045974654048893
0.91,0.5086273928557711,0.009934870145169703,0.5049206547871625
0.92,0.5087189393709369,0.009154651516580846,0.5052230432200853
0.93,0.508803144236151,0.008420486521412971,0.5055058469709266
0.9400000000000001,0.5088804411873743,0.0077296951223216545,0.505770211566765
0.9500000000000001,0.508951238718524,0.0070797531149722525,0.5060172159067434
0.96,0.5090159215491995,0.0064682830675558125,0.5062478761371904
0.97,0.5090748520070681,0.005893045786859396,0.5064631492990952
0.98,0.5091283713298754,0.00535193228072962,0.5066639367657623
0.99,0.5091768008917533,0.0048429561877946555,0.5068510874792371
1.0,0.5092204433582258,0.004364246647249914,0.5070254009984193
1.01,0.5092595837740593,0.003914041583357897,0.5071876303711282
1.02,0.5092944905878628,0.0034906813803512347,0.5073384848381939
1.03,0.5093254166171132,0.003092602925041554,0.507478632380332
1.04,0.5093525999570722,0.00271833399590079,0.5076087021176614
1.05,0.5093762648368552,0.0023664879783017565,0.5077292865688721
1.06,0.509396622425726,0.0020357588870858366,0.5078409437796907
1.07,0.5094138715925108,0.0017249166784817469,0.5079441993270599
1.08,0.5094281996208574,0.0014328028346539121,0.5080395482072958
1.09,0.5094397828829066,0.0011583262049235652,0.5081274566139383
1.1,0.5094487874737952,0.0009004590888631479,0.5082083636128507
1.11,0.5094553698092655,0.0006582335470383669,0.5082826827191145
1.12,0.5094596771885291,0.0004307379263547848,0.5083508033831995
1.1300000000000001,0.5094618483244027,0.00021711358734802767,0.5084130923898131
1.1400000000000001,0.509462013842621,1.6551821834564823e-05,0.5084698951762028
1.1500000000000001,0.5094602967521179,-0.00017170905031233,0.5085215370729783
1.16,0.5094568128879627,-0.000348386415513702,0.5085683244735955
1.17,0.5094516713285442,-0.0005141559418557653,0.5086105459354767
1.18,0.5094449747884965,-0.0006696540047712254,0.5086484732168741
1.19,0.5094368199887803,-0.0008154799716168728,0.5086823622540297
1.2,0.5094272980052454,-0.0009521983534831138,0.5087124540808683
1.21,0.509416494596927,-0.001080340831848126,0.5087389756957462
1.22,0.5094044905152526,-0.0012004081674316883,0.5087621408774168
1.23,0.5093913617952727,-0.0013128719979985108,0.5087821509540469
1.24,0.5093771800299554,-0.0014181765317301202,0.5087991955267147
1.25,0.5093620126285352,-0.0015167401420188246,0.5088134531519253
1.26,0.5093459230598384,-0.001608956869685774,0.5088250919830996
1.27,0.5093289710814615,-0.001695197837687446,0.5088342703763458
1.28,0.5093112129556245,-0.0017758125836900512,0.508841137459564
1.29,0.509292701652473,-0.0018511303151553032,0.5088458336691137
1.3,0.5092734870415595,-0.0019214610913529722,0.5088484912557268
1.31,0.5092536160721919,-0.0019870969367645434,0.508849234759934
1.32,0.5092331329432952,-0.0020483128896722773,0.508848181460815
1.33,0.5092120792633967,-0.002105367989850604,0.5088454417979199
1.34,0.5091904942013092,-0.0021585062087469023,0.5088411197694227
1.35,0.5091684146280528,-0.002207957325635135,0.5088353133064307
1.36,0.5091458752505245,-0.0022539377528356113,0.5088281146257687
1.37,0.5091229087373955,-0.002296651312899523,0.5088196105625631
1.3800000000000001,0.509099545837689,-0.002336289970655703,0.5088098828829697
1.3900000000000001,0.5090758154924625,-0.0023730345226516407,0.5087990085791766
1.4000000000000001,0.5090517449399968,-0.0024070552465713774,0.5087870601467313
1.41,0.5090273598148684,-0.002438512512848934,0.5087741058462805
1.42,0.5090026842412615,-0.0024675573606837923,0.5087602099500517
1.43,0.5089777409208548,-0.0024943320406650596,0.508745432973321
1.44,0.5089525512155972,-0.0025189705257578133,0.5087298318933577
1.45,0.5089271352256709,-0.002541598992629257,0.5087134603549521
1.46,0.5089015118629217,-0.0025623362749240706,0.5086963688645654
1.47,0.5088756989200185,-0.002581294290317648,0.5086786049722075
1.48,0.5088497131355928,-0.0025985784425672227,0.5086602134442547
1.49,0.5088235702555897,-0.0026142880003129695,0.5086412364247357
1.5,0.5087972850910514,-0.002628516453830076,0.5086217135879885
1.51,0.5087708715725415,-0.002641351850980255,0.5086016822826089
1.52,0.5087443428014046,-0.0026528771136924527,0.5085811776664315
1.53,0.5087177110980441,-0.0026631703360456274,0.508560232833954
1.54,0.5086909880473947,-0.0026723050649489423,0.5085388789367252
1.55,0.5086641845417488,-0.002680350564589095,0.5085171452959465
1.56,0.5086373108210945,-0.0026873720654190573,0.5084950595093695
1.57,0.5086103765111069,-0.002693430998770007,0.5084726475510688
1.58,0.5085833906589294,-0.00269858521774201,0.5084499338663083
1.59,0.5085563617668771,-0.0027028892052290633,0.5084269414606071
1.6,0.5085292978241774,-0.0027063942699658717,0.5084036919829317
1.61,0.5085022063368668,-0.0027091487310623263,0.5083802058051968
1.62,0.5084750943559482,-0.0027111980918667834,0.5083565020962915
1.6300000000000001,0.5084479685039114,-0.0027125852036832365,0.5083325988922726
1.6400000000000001,0.5084208349997112,-0.002713350420017334,0.5083085131620567
1.6500000000000001,0.5083936996822932,-0.002713531741806717,0.5082842608697634
1.6600000000000001,0.5083665680327508,-0.002713164954241286,0.50825985703303
1.67,0.5083394451951947,-0.0027122837556107547,0.5082353157781914
1.68,0.5083123359964082,-0.0027109198786476538,0.5082106503922297
1.69,0.5082852449643595,-0.0027091032048732187,0.508185873371348
1.7,0.5082581763456375,-0.002706861872188192,0.5081609964675409
1.71,0.508231134121874,-0.0027042223763529593,0.5081360307312043
1.72,0.5082041220252098,-0.0027012096664240526,0.5081109865527009
1.73,0.5081771435528627,-0.0026978472347064177,0.5080858737004768
1.74,0.5081502019808475,-0.0026941572015219176,0.5080607013570498
1.75,0.5081233003768977,-0.0026901603949819877,0.508035478153471
1.76,0.5080964416126367,-0.00268587642609791,0.508010212201569
1.77,0.5080696283750405,-0.002681323759616815,0.5079849111237372
1.78,0.5080428631772336,-0.002676519780693619,0.5079595820816757
1.79,0.5080161483686574,-0.0026714808576157366,0.5079342318035883
1.8,0.5079894861446469,-0.0026662224010482005,0.5079088666086142
1.81,0.5079628785554504,-0.0026607589196444227,0.5078834924316133
1.82,0.507936327514725,-0.002655104072546154,0.5078581148449596
1.83,0.5079098348075368,-0.0026492707188171642,0.5078327390797426
1.84,0.5078834020978974,-0.0026432709639432,0.5078073700459658
1.85,0.5078570309358605,-0.002637116203682199,0.5077820123510053
1.86,0.5078307227642068,-0.002630817165369514,0.5077566703172398
1.87,0.507804478924739,-0.002624383946784203,0.5077313479988649
1.8800000000000001,0.5077783006642113,-0.0026178260527702883,0.5077060491974694
1.8900000000000001,0.5077521891399142,-0.0026111524297142688,0.5076807774768528
1.9000000000000001,0.5077261454249331,-0.0026043714981103575,0.507655536176448
1.9100000000000001,0.5077001705131027,-0.0025974911830437424,0.5076303284253607
1.92,0.5076742653236717,-0.0025905189431033255,0.5076051571536526
1.93,0.5076484307056967,-0.00258346179750436,0.5075800251045113
1.94,0.5076226674421803,-0.0025763263516315076,0.5075549348451857
1.95,0.507596976253969,-0.002569118821127258,0.50752988877712
1.96,0.507571357803423,-0.002561845054603295,0.5075048891455325
1.97,0.5075458126978735,-0.0025545105549499843,0.5074799380489594
1.98,0.5075203414928785,-0.002547120499495647,0.5074550374473976
1.99,0.5074949446952891,-0.002539679758941082,0.5074301891706765
2.0,0.507469622766137,-0.002532192915200648,0.5074053949260442
2.0100000000000002,0.5074443761233549,-0.0025246642782114853,0.5073806563053228
2.02,0.5074192051443369,-0.0025170979018016675,0.5073559747914934
2.0300000000000002,0.5073941101683515,-0.0025094975985454062,0.5073313517655281
2.04,0.5073690914988132,-0.002501866953832287,0.5073067885119897
2.05,0.5073441494054219,-0.0024942093391211776,0.5072822862246771
2.06,0.5073192841261784,-0.002486527924349124,0.5072578460123262
2.07,0.5072944958692813,-0.0024788256897095512,0.5072334689031588
2.08,0.5072697848149146,-0.0024711054366788883,0.5072091558499492
2.09,0.5072451511169301,-0.002463369798439851,0.5071849077342758
2.1,0.5072205949044336,-0.0024556212496482316,0.5071607253709662
2.11,0.5071961162832761,-0.0024478621157462016,0.5071366095114613
2.12,0.5071717153374603,-0.0024400945815742253,0.5071125608483487
2.13,0.5071473921304642,-0.0024323206996066486,0.5070885800182194
2.14,0.5071231467064876,-0.002424542397663842,0.507064667605198
2.15,0.507098979091626,-0.0024167614861622215,0.5070408241441126
2.16,0.5070748892949763,-0.002408979664970389,0.5070170501232771
2.17,0.5070508773096779,-0.0024011985298493348,0.5069933459873331
2.18,0.5070269431138924,-0.0023934195785478055,0.5069697121396931
2.19,0.5070030866717278,-0.0023856442164612683,0.5069461489453977
2.2,0.5069793079341068,-0.002377873762096982,0.5069226567327262
2.21,0.5069556068395861,-0.002370109452077506,0.5068992357960994
2.22,0.5069319833151267,-0.002362352445938331,0.5068758863976781
2.23,0.5069084372768201,-0.0023546038306522347,0.5068526087692602
2.24,0.5068849686305718,-0.002346864624837452,0.5068294031143614
2.25,0.5068615772727441,-0.0023391357827730603,0.5068062696096518
2.2600000000000002,0.5068382630907629,-0.0023314181981188504,0.5067832084068764
2.27,0.5068150259636879,-0.0023237127074921086,0.5067602196339906
2.2800000000000002,0.5067918657627498,-0.002316020093803905,0.5067373033967543
2.29,0.506768782351856,-0.0023083410893820593,0.5067144597801688
2.3000000000000003,0.5067457755880668,-0.002300676378920851,0.5066916888496928
2.31,0.5067228453220438,-0.0022930266022989413,0.5066689906522303
2.32,0.5066999913984722,-0.002285392357165061,0.5066463652175983
2.33,0.5066772136564578,-0.0022777742014441155,0.5066238125592187
2.34,0.5066545119299014,-0.0022701726556374584,0.5066013326754188
2.35,0.506631886047851,-0.0022625882050412265,0.5065789255501006
2.36,0.506609335834833,-0.002255021301796544,0.5065565911538223
2.37,0.5065868611111649,-0.0022474723668067013,0.5065343294446925
2.38,0.5065644616932485,-0.0022399417916359014,0.5065121403686785
2.39,0.5065421373938468,-0.0022324299401748175,0.5064900238609722
2.4,0.506519888022344,-0.0022249371502775497,0.5064679798463244
2.41,0.5064977133849909,-0.002217463735308744,0.5064460082396742
2.42,0.5064756132851352,-0.0022100099855648972,0.5064241089469448
2.43,0.5064535875234387,-0.0022025761696554563,0.5064022818654041
2.44,0.5064316358980809,-0.002195162535773842,0.506380526884364
2.45,0.5064097582049525,-0.0021877693128478644,0.5063588438859221
2.46,0.5063879542378346,-0.0021803967117877015,0.506337232744611
2.47,0.5063662237885704,-0.0021730449264155344,0.506315693329106
2.48,0.5063445666472243,-0.0021657141346114067,0.5062942255012703
2.49,0.5063229826022331,-0.0021584044991194034,0.5062728291179537
2.5,0.5063014714405473,-0.002151116168578448,0.5062515040299819
2.5100000000000002,0.5062800329477649,-0.0021438492782409717,0.5062302500838057
2.52,0.5062586669082564,-0.0021366039508566074,0.5062090671207747
2.5300000000000002,0.5062373731052829,-0.002129380297340832,0.5061879549782924
2.54,0.5062161513211075,-0.0021221784175392213,0.506166913489424
2.5500000000000003,0.5061950013370988,-0.00211499840087389,0.5061459424835573
2.56,0.5061739229338295,-0.002107840326933329,0.506125041786758
2.57,0.5061529158911687,-0.0021007042660722386,0.5061042112217883
2.58,0.5061319799883687,-0.0020935902800110918,0.5060834506081708
2.59,0.5061111150041459,-0.0020864984222844873,0.5060627597630012
2.6,0.5060903207167583,-0.0020794287387598466,0.5060421385006548
2.61,0.506069596904077,-0.002072381268130307,0.506021586632968
2.62,0.5060489433436541,-0.002065356042294108,0.5060011039698515
2.63,0.5060283598127862,-0.0020583530868017222,0.5059806903190014
2.64,0.5060078460885739,-0.0020513724212317557,0.5059603454862959
2.65,0.5059874019479784,-0.0020444140595405106,0.5059400692759685
2.66,0.5059670271678742,-0.0020374780104209225,0.5059198614905993
2.67,0.5059467215250979,-0.0020305642776279656,0.5058997219313179
2.68,0.5059264847964955,-0.002023672860237912,0.5058796503981667
2.69,0.5059063167589654,-0.002016803753009021,0.505859646689628
2.7,0.5058862171894997,-0.0020099569465723654,0.5058397106034982
2.71,0.5058661858652223,-0.0020031324277467997,0.5058198419362989
2.72,0.505846222563425,-0.0019963301797217936,0.50580004048396
2.73,0.5058263270616018,-0.001989550182323262,0.5057803060414316
2.74,0.5058064991374795,-0.0019827924122234877,0.5057606384029845
2.75,0.5057867385690484,-0.001976056843115425,0.5057410373624087
2.7600000000000002,0.5057670451345893,-0.001969343445920068,0.5057215027128694
2.77,0.5057474186126999,-0.0019626521889352425,0.5057020342472174
2.7800000000000002,0.5057278587823195,-0.001955983038042063,0.505682631757719
2.79,0.5057083654227511,-0.0019493359568440885,0.5056632950364073
2.8000000000000003,0.5056889383136832,-0.0019427109067855157,0.5056440238752018
2.81,0.5056695772352099,-0.001936107847333323,0.5056248180656049
2.82,0.5056502819678489,-0.0019295267360999282,0.5056056773990102
2.83,0.5056310522925596,-0.0019229675289314286,0.5055866016668864
2.84,0.505611887990759,-0.0019164301800582363,0.505567590660479
2.85,0.505592788844337,-0.0019099146421985725,0.5055486441710544
2.86,0.5055737546356704,-0.0019034208666529485,0.5055297619899553
2.87,0.5055547851476366,-0.001896948803383035,0.5055109439086873
2.88,0.505535880163625,-0.0018904984011630978,0.5054921897185671
2.89,0.5055170394675491,-0.0018840696075895437,0.5054734992114347
2.9,0.5054982628438571,-0.0018776623691960305,0.5054548721791372
2.91,0.5054795500775414,-0.001871276631568707,0.5054363084135339
2.92,0.5054609009541481,-0.0018649123393386635,0.5054178077071132
2.93,0.505442315259785,-0.0018585694363128724,0.5053993698523102
2.94,0.5054237927811301,-0.0018522478654869545,0.505380994642099
2.95,0.5054053333054386,-0.0018459475691541371,0.5053626818695199
2.96,0.5053869366205492,-0.001839668488934786,0.5053444313280776
2.97,0.5053686025148909,-0.0018334105658371336,0.5053262428115908
