time,theta,theta_dot,tau
0.0,0.004,0.4,2
0.01,0.011831999999999999,0.7831999999999999,2
0.02,0.023327056,1.1495056,2
0.03,0.038315655648,1.4988599647999998,2
0.04,0.056628079998784,1.8312424350783998,2
0.05,0.07809475121553906,2.146667121675507,2
0.06,0.10254656608119285,2.445181486565379,2
0.07,0.12594765756774404,2.3401091486551193,0.06622117384297077
0.08,0.14801472078577957,2.206706321803553,-0.07304464695906354
0.09,0.1688373842708804,2.0822663485100836,-0.032843881320857804
0.1,0.18848505113236824,1.9647666861487825,-0.002207657833608323
0.11,0.20702386550316182,1.8538814370793588,0.027012143015006984
0.12,0.22451622270949337,1.7492357206331544,0.05457157068801166
0.13,0.24102100881106894,1.6504786101575581,0.08057781445814349
0.14,0.25659379681677486,1.5572788005705909,0.10511768290774448
0.15,0.2712870331305984,1.4693236313823534,0.12827371098970541
0.16,0.2851502134540141,1.3863180323415696,0.15012376420315032
0.17,0.2982300487943035,1.3079835340289403,0.1707413283591812
0.18,0.31057062213306114,1.2340573338757679,0.190195754834229
0.19,0.3222135362804505,1.1642914147389374,0.20855249322406255
0.2,0.33319805341110037,1.0984517130649838,0.2258733108584705
0.21,0.3435612267496373,1.0363173338536906,0.24221649996763084
0.22,0.35333802484751947,0.9776798097882201,0.2576370731930231
0.23,0.3625614488679897,0.9223424020470232,0.2721869480991792
0.24,0.3712626432725136,0.8701194404523953,0.2859151213042548
0.25,0.37947100027994046,0.8208357007426818,0.29886783281442497
0.26,0.3872142584487347,0.7743258168794216,0.311088721112176
0.27,0.39451859571291925,0.7304337264184535,0.32261896951977853
0.28,0.40140871718376614,0.6890121470846888,0.3334974443277865
0.29,0.4079079380117173,0.6499220827951157,0.3437608251528381
0.3,0.41403826158644896,0.6130323574731646,0.35344372796098567
0.31,0.4198204533373588,0.5782191750909801,0.36257882117015905
0.32,0.4252741103819976,0.5453657044638766,0.37119693522003727
0.33,0.43041772725604316,0.5143616874045599,0.37932716597818983
0.34,0.4352687579452705,0.48510306892273436,0.3869969723278275
0.35000000000000003,0.4398436744275694,0.4574916482298925,0.3942322682656081
0.36,0.4441580219213574,0.431434749378801,0.4010575098180902
0.37,0.4482264710256867,0.40684491043293053,0.4074957770677652
0.38,0.45206286692692077,0.3836395901234104,0.41356885156467227
0.39,0.4556802758370168,0.3617408910096031,0.41929728938256616
0.4,0.45909102881916497,0.3410752982148161,0.4247004900650022
0.41000000000000003,0.462306763147774,0.32157343286090706,0.4297967616925831
0.42,0.46533846134152135,0.3031698193747331,0.43460338228908557
0.43,0.4681964880003825,0.2858026658861154,0.4391366577733795
0.44,0.47089062457018965,0.26941365698071346,0.44341197665059573
0.45,0.4734301021513168,0.25394775811271797,0.44744386162635497
0.46,0.4758236324615311,0.2393530310214277,0.45124601831740896
0.47000000000000003,0.4780794370568563,0.22558045953251815,0.454831381221269
0.48,0.4802052749084555,0.2125837851599186,0.4582121571003621
0.49,0.4822084684280229,0.20031935195673956,0.46139986592454396
0.5,0.4840959280289728,0.1887459600949889,0.46440537951061756
0.51,0.4858741753058027,0.17782472768299173,0.46723895798798476
0.52,0.4875493649093728,0.16751896035701086,0.4699102842124967
0.53,0.4891273051914701,0.15779402820972696,0.47242849624435546
0.54,0.4906134776878979,0.14861724964278328,0.47480221799869704
0.55,0.49201305550543645,0.13995778175385057,0.47703958817179104
0.56,0.49333092067434203,0.13178651689056053,0.47914828753975636
0.5700000000000001,0.494571680524586,0.12407598502439429,0.4811355647216229
0.58,0.49573968314075634,0.11680026161703225,0.48300826049265466
0.59,0.4968390319474589,0.1099348806702563,0.484772830730283
0.6,0.4978735994741351,0.10345675266762648,0.4864353680683611
0.61,0.4988470403454637,0.09734408713285582,0.48800162233380706
0.62,0.4997628035409147,0.09157631954509841,0.48947701983324776
0.63,0.5006241439645746,0.08613404236599222,0.4908666815544034
0.64,0.5014341333640464,0.08099893994718052,0.4921754403437145
0.65,0.5021956706350456,0.07615372709991663,0.49340785711716306
0.66,0.5029114915462547,0.07158209112091861,0.49456823616003875
0.67,0.5035841779170512,0.06726863707965916,0.4956606395641412
0.68,0.5042161662788915,0.06319883618403092,0.49668890085484185
0.6900000000000001,0.5048097560494001,0.05935897705086309,0.4976566378498586
0.7000000000000001,0.5053671172465807,0.0557361197180507,0.49856726479551083
0.71,0.5058902977690197,0.0523180522439078,0.49942400381947627
0.72,0.5063812302665035,0.04909324974837609,0.5002298957401428
0.73,0.5068417386240881,0.04605083575846343,0.5009878102666154
0.74,0.5072735440813737,0.043180545728558666,0.501700455626257
0.75,0.5076782710075032,0.040472692612951215,0.5023703876490482
0.76,0.5080574523512574,0.03791813437542853,0.50300001834248
0.77,0.5084125347845238,0.03550824332662716,0.5035916239823363
0.78,0.50874488355639,0.0332348771866297,0.5041473527498619
0.79,0.5090557870741454,0.03109035177553772,0.5046692319382561
0.8,0.5093464612265496,0.029067415240408116,0.505159174753605
0.81,0.5096180534638733,0.02715922373237582,0.5056189867344697
0.8200000000000001,0.5098716466483936,0.025359318452017703,0.5060503718085579
0.8300000000000001,0.5101082626882559,0.023661603986233643,0.5064549380098768
0.84,0.5103288659668955,0.022060327863956238,0.5068342028741156
0.85,0.510534366579515,0.02055006126194263,0.5071895985296188
0.86,0.510725623387477,0.01912568079619021,0.5075224765031414
0.87,0.510903446900854,0.017782351337707464,0.5078341122543013
0.88,0.511068601998805,0.01651550979510132,0.5081257094553647
0.89,0.5112218104969003,0.015320849809529075,0.5083984040299641
0.9,0.5113637535700085,0.014194307310821403,0.5086532679652678
0.91,0.5114950740388695,0.013132046886099275,0.5088913129085622
0.92,0.5116163785280232,0.012130448915372821,0.509113493562457
0.93,0.5117282395023321,0.011186097430890935,0.5093207108886884
0.9400000000000001,0.5118311971889272,0.010295768659503919,0.5095138151315752
0.9500000000000001,0.5119257613910241,0.009456420209690104,0.509693608671759
0.96,0.5120124131996928,0.00866518086686931,0.5098608487188582
0.97,0.5120916066093212,0.007919340962833572,0.510016249852888
0.98,0.5121637700421923,0.007216343287114175,0.5101604864232909
0.99,0.5122293077872874,0.006553774509506755,0.510294194811578
1.0,0.51228860135814,0.005929357085266779,0.5104179755679888
1.01,0.512342010774298,0.005340941615791345,0.5105323954278163
1.02,0.512389875770687,0.004786499638901026,0.5106379892130046
1.03,0.5124325169389365,0.0042641168249575034,0.5107352616287495
1.04,0.5124702368044924,0.003771986555584389,0.5108246889570625
1.05,0.5125033208431307,0.003308403863819248,0.5109067206567837
1.06,0.5125320384402814,0.0028717597150727356,0.510981780872162
1.07,0.5125566437963802,0.002460535609885056,0.5110502698573576
1.08,0.5125773767812838,0.0020732984903546856,0.5111125653207054
1.09,0.5125944637406148,0.0017086959331034043,0.5111690236930984
1.1,0.5126081182567421,0.0013654516127344636,0.5112199813253908
1.11,0.5126185418669463,0.0010423610204225381,0.5112657556177294
1.12,0.5126259247411814,0.0007382874235116238,0.5113066460864762
1.1300000000000001,0.5126304463217045,0.00045215805230890913,0.5113429353698702
1.1400000000000001,0.5126322759267192,0.00018296050147338866,0.5113748901779887
1.1500000000000001,0.512631573320058,-7.026066611478035e-05,0.5114027621890731
1.16,0.5126284892488129,-0.0003084071245113957,0.511426788894852
1.17,0.5126231659507186,-0.0005323298094305712,0.5114471943993147
1.18,0.5126157376329898,-0.0007428317728659656,0.5114641901716555
1.19,0.5126063309242191,-0.0009406708770678013,0.5114779757574075
1.2,0.5125950653008491,-0.0011265623370085914,0.5114887394491017
1.21,0.5125820534896517,-0.0013011811197381656,0.5114966589197995
1.22,0.5125674018475638,-0.001465164208794351,0.5115019018204231
1.23,0.5125512107201513,-0.0016191127412424294,0.5115046263435645
1.24,0.5125335747799075,-0.0017635940243830035,0.5115049817562
1.25,0.512514583345516,-0.001899143439146795,0.5115031089012119
1.26,0.5124943206831536,-0.002026266236244207,0.5114991406721996
1.27,0.5124728662908399,-0.0021454392313736753,0.5114932024602574
1.28,0.5124502951667894,-0.0022571124050419895,0.5114854125762236
1.29,0.5124266780626663,-0.0023617104123114857,0.5114758826494336
1.3,0.5124020817225892,-0.0024596340077134133,0.5114647180031944
1.31,0.5123765691086904,-0.002551261389873833,0.5114520180102444
1.32,0.5123501996139845,-0.002636949470590217,0.5114378764271338
1.33,0.5123230292632599,-0.002717035072461133,0.5114223817105119
1.34,0.5122951109026683,-0.0027918360591573216,0.5114056173152868
1.35,0.5122664943786476,-0.0028616524020777475,0.5113876619762348
1.36,0.5122372267067775,-0.0029267671870076236,0.5113685899735827
1.37,0.512207352231136,-0.00298744756415082,0.51134847138366
1.3800000000000001,0.5121769127746889,-0.00304394564470843,0.5113273723155178
1.3900000000000001,0.5121459477812188,-0.003096499347007093,0.5113053551342539
1.4000000000000001,0.5121144944492686,-0.0031453331950224437,0.5112824786717406
1.41,0.5120825878585485,-0.0031906590720014736,0.5112587984253689
1.42,0.5120502610892324,-0.0032326769316229752,0.5112343667460407
1.43,0.5120175453345397,-0.003271575469269956,0.5112092330146728
1.44,0.5119844700069861,-0.0033075327553609155,0.511183443810231
1.45,0.5119510628386539,-0.0033407168332225965,0.5111570430666055
1.46,0.5119173499758217,-0.0033712862832197717,0.5111300722220234
1.47,0.51188335606827,-0.0033993907551805487,0.5111025703593739
1.48,0.5118491043535615,-0.0034251714708465617,0.5110745743389038
1.49,0.5118146167365806,-0.0034487616980910804,0.5110461189231695
1.5,0.511779913864596,-0.003470287198457662,0.5110172368951295
1.51,0.5117450151981017,-0.003489866649425972,0.5109879591700629
1.52,0.5117099390776708,-0.0035076120430812163,0.5109583148999403
1.53,0.5116747027870486,-0.0035236290622178658,0.5109283315733714
1.54,0.5116393226126953,-0.0035380174353392426,0.5108980351089982
1.55,0.5116038138999784,-0.003550871271683771,0.5108674499439048
1.56,0.5115681911062047,-0.003562279377378792,0.5108365991171666
1.57,0.5115324678506659,-0.0035723255538792145,0.5108055043482268
1.58,0.511496656961871,-0.003581088879490564,0.5107741861118332
1.59,0.5114607705221192,-0.003588643975176893,0.5107426637075412
1.6,0.5114248199095659,-0.0035950612553350926,0.5107109553262928
1.61,0.5113888158379211,-0.0036004071644847157,0.5106790781127508
1.62,0.5113527683939143,-0.003604744400680089,0.5106470482240473
1.6300000000000001,0.5113166870726515,-0.003608132126271608,0.5106148808858207
1.6400000000000001,0.5112805808109829,-0.0036106261668633465,0.5105825904444385
1.6500000000000001,0.5112444580189918,-0.0036122791991204896,0.5105501904163245
1.6600000000000001,0.511208326609713,-0.003613140927866405,0.5105176935354381
1.67,0.5111721940271793,-0.0036132582533736925,0.5104851117966034
1.68,0.5111360672728874,-0.0036126754291900443,0.5104524564974228
1.69,0.5110999529307773,-0.0036114342110107845,0.5104197382779457
1.7,0.5110638571908046,-0.0036095739972640106,0.510386967157309
1.71,0.5110277858711866,-0.0036071319618024523,0.5103541525686596
1.72,0.5109917444393964,-0.003604143179014081,0.5103213033927679
1.73,0.5109557380319762,-0.0036006407420141897,0.5102884279885931
1.74,0.510919771473235,-0.0035966558741246614,0.5102555342230211
1.75,0.5108838492928939,-0.0035922180341107237,0.5102226294984797
1.76,0.5108479757427393,-0.003587355015458089,0.5101897207793349
1.77,0.5108121548123383,-0.0035820930401025586,0.5101568146164254
1.78,0.5107763902438696,-0.0035764568468772697,0.5101239171704443
1.79,0.5107406855461198,-0.003570469774975267,0.5100910342340041
1.8,0.5107050440076926,-0.003564153842728419,0.5100581712523591
1.81,0.5106694687094734,-0.0035575298219200423,0.5100253333431888
1.82,0.5106339625363936,-0.0035506173079841896,0.5099925253147687
1.83,0.5105985281885318,-0.0035434347861779637,0.5099597516838279
1.84,0.5105631681915911,-0.0035359996940710417,0.5099270166918308
1.85,0.5105278849067856,-0.003528328480556471,0.5098943243203498
1.86,0.5104926805401712,-0.0035204366614440003,0.5098616783062366
1.87,0.5104575571514511,-0.0035123388719993836,0.5098290821551055
1.8800000000000001,0.5104225166622858,-0.0035040489165364024,0.5097965391543662
1.8900000000000001,0.510387560864134,-0.0034955798151789248,0.5097640523857658
1.9000000000000001,0.5103526914256542,-0.0034869438479706656,0.5097316247371395
1.9100000000000001,0.5103179098996883,-0.0034781525965974134,0.5096992589129263
1.92,0.5102832177298516,-0.0034692169836665642,0.509666957445023
1.93,0.5102486162567538,-0.003460147309790148,0.5096347227025004
1.94,0.510214106723867,-0.0034509532886757145,0.5096025569003679
1.95,0.5101796902830661,-0.00344164408009647,0.5095704621090281
1.96,0.5101453679998547,-0.003432228321137684,0.5095384402618407
1.97,0.5101111408582989,-0.003422714155573811,0.5095064931634465
1.98,0.5100770097656817,-0.003413109261719191,0.5094746224964573
1.99,0.510042975556896,-0.003403420878563898,0.5094428298291144
2.0,0.5100090389985905,-0.0033936558305528524,0.5094111166212385
2.0100000000000002,0.509975200793081,-0.0033838205509544167,0.5093794842304721
2.02,0.5099414615820426,-0.0033739211038444545,0.5093479339184399
2.0300000000000002,0.5099078219499933,-0.0033639632049278973,0.5093164668558564
2.04,0.5098742824275815,-0.003353952241178923,0.5092850841277525
2.05,0.5098408434946883,-0.0033438932893251924,0.5092537867386143
2.06,0.5098075055833546,-0.0033337911333618385,0.50922257561664
2.07,0.5097742690805447,-0.003323650280991761,0.5091914516185326
2.08,0.509741134330752,-0.00331347497927462,0.509160415532932
2.09,0.5097081016384595,-0.0033032692292497812,0.5091294680850212
2.1,0.5096751712704615,-0.0032930367998045807,0.5090986099398356
2.11,0.5096423434580534,-0.003282781240806929,0.5090678417054888
2.12,0.5096096183990995,-0.0032725058953909734,0.5090371639369717
2.13,0.5095769962599827,-0.0032622139116783885,0.5090065771385842
2.14,0.5095444771774457,-0.0032519082536994624,0.5089760817675416
2.15,0.5095120612603272,-0.0032415917118418045,0.508945678235994
2.16,0.5094797485912014,-0.0032312669125848046,0.5089153669142439
2.17,0.5094475392279234,-0.0032209363278018575,0.5088851481325991
2.18,0.5094154332050891,-0.0032106022834328925,0.5088550221842079
2.19,0.5093834305354118,-0.0032002669677323545,0.5088249893269052
2.2,0.5093515312110211,-0.0031899324390721605,0.5087950497851663
2.21,0.509319735204689,-0.003179600633211286,0.508765203752511
2.22,0.5092880424709861,-0.0031692733702861717,0.5087354513926723
2.23,0.5092564529473735,-0.0031589523612627654,0.508705792842046
2.24,0.5092249665552318,-0.0031486392141748397,0.5086762282105606
2.25,0.509193583200833,-0.003138335439876769,0.5086467575838871
2.2600000000000002,0.509162302776257,-0.003128042457595268,0.5086173810242651
2.27,0.5091311251602566,-0.003117761600036526,0.5085880985725316
2.2800000000000002,0.5091000502190731,-0.0031074941183483282,0.5085589102486903
2.29,0.5090690778072066,-0.003097241186658603,0.5085298160538521
2.3000000000000003,0.5090382077681416,-0.0030870039065004824,0.5085008159706654
2.31,0.509007439935033,-0.0030767833108655026,0.5084719099650163
2.32,0.5089767741313518,-0.0030665803681196066,0.5084430979865894
2.33,0.5089462101714954,-0.003056395985633595,0.5084143799701579
2.34,0.508915747861363,-0.0030462310132493985,0.5083857558362898
2.35,0.5088853869988974,-0.0030360862465524585,0.5083572254921978
2.36,0.5088551273745984,-0.0030259624299082775,0.5083287888328079
2.37,0.5088249687720042,-0.003015860259419498,0.5083004457410606
2.38,0.5087949109681482,-0.0030057803855956995,0.5082721960892393
2.39,0.5087649537339882,-0.0029957234159939533,0.5082440397390378
2.4,0.5087350968348116,-0.002985689917665621,0.5082159765424311
2.41,0.5087053400306175,-0.0029756804194034456,0.5081880063425893
2.42,0.508675683076478,-0.0029656954139446554,0.5081601289740307
2.43,0.5086461257228778,-0.0029557353600248113,0.5081323442632883
2.44,0.5086166677160345,-0.002945800684324027,0.5081046520293768
2.45,0.5085873087982021,-0.002935891783236797,0.5080770520846059
2.46,0.5085580487079553,-0.00292600902468477,0.5080495442343149
2.47,0.5085288871804587,-0.0029161527496594708,0.5080221282781449
2.48,0.5084998239477208,-0.0029063232737952392,0.507994804009848
2.49,0.5084708587388328,-0.002896520888799934,0.5079675712179382
2.5,0.508441991280194,-0.0028867458638794784,0.5079404296856751
2.5100000000000002,0.5084132212957249,-0.002876998446910637,0.5079133791922623
2.52,0.5083845485070668,-0.0028672788658001915,0.507886419511895
2.5300000000000002,0.5083559726337717,-0.002857587329502307,0.5078595504153962
2.54,0.5083274933934797,-0.002847924029197988,0.5078327716693929
2.5500000000000003,0.508299110502087,-0.0028382891392692323,0.5078060830372839
2.56,0.5082708236739042,-0.0028286828182747616,0.5077794842792055
2.57,0.5082426326218056,-0.002819105209859094,0.5077529751523275
2.58,0.5082145370573694,-0.0028095564436222053,0.5077265554110182
2.59,0.5081865366910102,-0.002800036635922307,0.5077002248071445
2.6,0.508158631232104,-0.0027905458906212965,0.5076739830903308
2.61,0.5081308203891055,-0.002781084299856804,0.5076478300078022
2.62,0.5081031038696587,-0.0027716519446806176,0.5076217653050151
2.63,0.5080754813807017,-0.0027622488957093384,0.507595788725579
2.64,0.5080479526285642,-0.002752875213750037,0.5075699000113564
2.65,0.5080205173190607,-0.0027435309503406427,0.5075440989028611
2.66,0.5079931751575774,-0.0027342161483349873,0.5075183851390209
2.67,0.5079659258491537,-0.0027249308423717184,0.5074927584577267
2.68,0.50793876909856,-0.00271567505937179,0.507467218595679
2.69,0.5079117046103702,-0.0027064488189775786,0.5074417652886567
2.7,0.50788473208903,-0.0026972521340237515,0.5074163982713438
2.71,0.507857851238921,-0.002688085010897421,0.5073911172778569
2.72,0.5078310617644217,-0.002678947449926415,0.5073659220415966
2.73,0.5078043633699643,-0.002669839445750464,0.5073408122953162
2.74,0.5077777557600873,-0.00266076098768878,0.5073157877711226
2.75,0.5077512386394877,-0.0026517120599662473,0.5072908482011622
2.7600000000000002,0.5077248117130662,-0.0026426926421539414,0.507265993316556
2.77,0.5076984746859731,-0.002633702709314632,0.5072412228488319
2.7800000000000002,0.5076722272636494,-0.0026247422323737763,0.5072165365288144
2.79,0.5076460691518662,-0.0026158111783147627,0.5071919340874697
2.8000000000000003,0.5076200000567617,-0.0026069095104515145,0.5071674152555194
2.81,0.507594019684875,-0.002598037188659639,0.5071429797636308
2.82,0.5075681277431797,-0.0025891941695283067,0.5071186273427998
2.83,0.5075423239391132,-0.002580380406642822,0.5070943577237015
2.84,0.5075166079806059,-0.002571595850729112,0.5070701706373533
2.85,0.5074909795761076,-0.0025628404498347786,0.5070460658149318
2.86,0.5074654384346126,-0.0025541141495016057,0.5070220429878065
2.87,0.5074399842656832,-0.002545416892942885,0.5069981018875058
2.88,0.5074146167794715,-0.0025367486211572573,0.5069742422460227
2.89,0.5073893356867405,-0.002528109273098554,0.5069504637955335
2.9,0.5073641406988822,-0.0025194987858237912,0.5069267662684946
2.91,0.5073390315279365,-0.0025109170945752366,0.5069031493979602
2.92,0.5073140078866073,-0.002502364132918032,0.5068796129173074
2.93,0.5072890694882785,-0.0024938398328795725,0.506856156560216
2.94,0.5072642160470284,-0.0024853441250018856,0.506832780061091
2.95,0.5072394472776434,-0.0024768769385113618,0.5068094831544807
2.96,0.50721476289563,-0.002468438201342292,0.5067862655757864
2.97,0.5071901626172274,-0.002460027840253996,0.506763127060803
2.98,0.507165646159418,-0.0024516457809432442,0.5067400673457303
2.99,0.5071412132399371,-0.0024432919480881095,0.506717086167505
