time,theta,theta_dot,tau
0.0,0.01,1.0,10
0.01,0.029578999999999994,1.9578999999999995,9.798999999999996
0.02,0.05317643409999998,2.3597434099999988,4.469172099999993
0.03,0.07799228103338998,2.481584693339,1.796714383590011
0.04,0.10264105979683538,2.4648778763445405,0.4852333307899883
0.05,0.12646062081229742,2.3819561015462045,-0.1309600531207824
0.06,0.14915728529415143,2.2696664481854003,-0.3935840716742067
0.07,0.17062375044792485,2.146646515377342,-0.47795146785519727
0.08,0.190845730664254,2.0221980216329154,-0.473908133472948
0.09,0.209854170170621,1.900843950636698,-0.4274096443070814
0.1,0.22770085465498532,1.7846684484364324,-0.3618778915340748
0.11,0.2444460327398232,1.6745178084837895,-0.289171000529171
0.12,0.2601521974508996,1.5706164711076422,-0.21521774658506843
0.13,0.27488102325207103,1.4728825801171395,-0.14291122078170027
0.14,0.28869191584852527,1.3810892596454265,-0.07359464218956013
0.15,0.30164138275204394,1.2949466903518674,-0.007824009309455704
0.16,0.3137828182437657,1.2141435491721777,0.054240691777565075
0.17,0.3251664944402655,1.1383676196499803,0.1126350510999945
0.18,0.33583965188732673,1.0673157447061212,0.16748776337193583
0.19,0.3458466353311627,1.0006983443836008,0.2189684494906743
0.2,0.35522904711971476,0.938241178855205,0.26726128425508744
0.21,0.36402590443178484,0.8796857312070111,0.3125518535285323
0.22,0.3722737935707142,0.8247889138929368,0.35502078196422904
0.23,0.3800070181547332,0.7733224584018982,0.394840815009629
0.24,0.3872577398638911,0.7250721709157919,0.4321756531287839
0.25,0.3940561113244363,0.679837146054517,0.46717966529819055
0.26,0.40043040116777745,0.6374289843341151,0.49999803465575754
0.27,0.406407111519757,0.5976710351979534,0.5307671078407608
0.28,0.4120110882734676,0.5603976753710627,0.5596148318101979
0.29,0.4172656245350631,0.5254536261595486,0.5866612195060075
0.3,0.42219255763761876,0.49269331025556395,0.6120188152621893
0.31,0.42681236010878976,0.46198024711709695,0.6357931459416801
0.32,0.4311442249618077,0.433186485301797,0.6580831514879995
0.33,0.4352061456603195,0.4061920698511797,0.6789815924778022
0.34,0.43901499108774994,0.3808845427430415,0.6985754342094928
0.35000000000000003,0.44258657583227473,0.35715847445247967,0.7169462078184901
0.36,0.4459357260795968,0.33491502473220885,0.7341703493523375
0.37,0.44907634138773933,0.31406153081425275,0.7503195179260742
0.38,0.45202145260107635,0.2945111213336998,0.7654608941327992
0.39,0.4547832761448198,0.27618235437434413,0.7796574598753361
0.4,0.45737326492614405,0.2589988781324274,0.792968260745341
0.41000000000000003,0.45980215605401215,0.2428891127868081,0.8054486520225808
0.42,0.46208001557652406,0.22778595225119205,0.8171505293092254
0.43,0.464216280422187,0.21362648456629382,0.8281225447543044
0.44,0.466219797719859,0.20035172976719975,0.838410309766692
0.45,0.46809886166119785,0.18790639413388452,0.8480565850600055
0.46,0.4698612480592078,0.17623863980099697,0.857101458820297
0.47000000000000003,0.4715142467468777,0.16529986876698777,0.8655825137385231
0.48,0.4730646919509042,0.15504452040265038,0.8735349836037791
0.49,0.47451899076705795,0.14542988161537346,0.8809919001095694
0.5,0.4758831498558391,0.13641590887812005,0.8879842304846564
0.51,0.4771628004696549,0.12796506138158054,0.894541006521907
0.52,0.4783632219157983,0.12004214461433386,0.9006894455431593
0.53,0.47948936355299066,0.11261416371923769,0.9064550638035016
0.54,0.4805458654131411,0.10565018601504651,0.9118617828079172
0.55,0.48153707753424535,0.09912121211042343,0.9169320289830607
0.56,0.48246707808497863,0.0930000550733258,0.921686827119599
0.5700000000000001,0.48333969035650187,0.08726122715232275,0.9261458879745919
0.58,0.4841584986922799,0.08188083357780214,0.9303276903982622
0.59,0.4849268634222861,0.07683647300062062,0.934249558328305
0.6,0.4856479348638194,0.07210714415333169,0.937927732971807
0.61,0.4863246664472703,0.06767315834508672,0.9413774404758555
0.62,0.4869598270215264,0.06351605742561328,0.9446129553688236
0.63,0.4875560123902907,0.05961853687643319,0.9476476600363746
0.64,0.4881156561273795,0.0559643737088773,0.9504941004803091
0.65,0.48864103971606443,0.05253835886849195,0.953164038592681
0.66,0.489134302054706,0.04932623386415456,0.9556685011624533
0.67,0.4895974483682847,0.04631463135787243,0.9580178258194216
0.68,0.49003235856296196,0.0434910194677216,0.9602217041066357
0.6900000000000001,0.4904407950584805,0.04084364955185275,0.9622892218607797
0.7000000000000001,0.4908244101310404,0.03836150725599229,0.9642288970687269
0.71,0.49118475279724516,0.03603426662047798,0.9660487153581361
0.72,0.4915232752678012,0.03385224705560298,0.9677561632698359
0.73,0.49184133899786125,0.03180637300600436,0.9693582594507368
0.74,0.4921402203592215,0.029888136136026887,0.9708615838971486
0.75,0.4924211159580064,0.02808955987849395,0.9722723053703191
0.76,0.49268514761999826,0.0264031661991866,0.9735962070986381
0.77,0.49293336706438373,0.024821944438544772,0.9748387108734156
0.78,0.4931667602853913,0.023339322100757495,0.9760048996386037
0.79,0.4933862516600767,0.021949137468542587,0.9770995386687851
0.8,0.4935927077993716,0.02064561392948598,0.9781270954232959
0.81,0.4937869411584416,0.019423335906999947,0.97909175815978
0.8200000000000001,0.49396971342139756,0.018277226295599823,0.9799974533842819
0.8300000000000001,0.4941417386744621,0.01720252530645435,0.9808478622104604
0.84,0.49430368638081323,0.016194770635113376,0.9816464356968053
0.85,0.4944561841695006,0.015249778868737152,0.9823964092248869
0.86,0.4945998204500544,0.014363628055382539,0.9831008159792025
0.87,0.4947351468636814,0.013532641362700371,0.9837624995843637
0.88,0.4948626805812611,0.012753371757968224,0.9843841259525814
0.89,0.4949829064577174,0.01202258764563,0.9849681943907336
0.9,0.4950962790517421,0.011337259402468635,0.9855170480129471
0.91,0.49520322451928567,0.01069454675435727,0.9860328835028642
0.92,0.49530414238870496,0.010091786941929748,0.9865177602651676
0.93,0.49539940722496434,0.009526483625936565,0.9869736090058641
0.9400000000000001,0.49548937018982414,0.008996296485979272,0.9874022397755431
0.9500000000000001,0.49557436050451764,0.00849903146935036,0.987805349510555
0.96,0.4956546868210107,0.008032631649304733,0.9881845291024491
0.97,0.49573063850755766,0.00759516865469344,0.9885412700257694
0.98,0.4958024868539102,0.007184834635254778,0.9888769705516673
0.99,0.4958704862012008,0.006799934729057921,0.9891929415729028
1.0,0.4959348750012082,0.006438880000741809,0.9894904120650521
1.01,0.4959958768094193,0.006100180821113721,0.9897705342062839
1.02,0.49605370121602455,0.005782440660523747,0.9900343881771616
1.03,0.49610854471872595,0.005484350270142602,0.9902829866603424
1.04,0.49616059154099523,0.005204682226928647,0.9905172790593408
1.05,0.4962100143991904,0.00494228581951367,0.9907381554532264
1.06,0.49625697522172774,0.004696082253737255,0.9909464503045193
1.07,0.496301625823306,0.0044650601578290925,0.9911429459351213
1.08,0.4963441085369911,0.00424827136851007,0.9913283757849876
1.09,0.49638455680679583,0.004044826980472404,0.9915034274673076
1.1,0.4964230957432236,0.003853893642773309,0.9916687456326951
1.11,0.4964598426440903,0.003674690086675125,0.99182493465402
1.12,0.4964949074827957,0.003506483870534371,0.9919725611441081
1.1300000000000001,0.4965283933660767,0.003348588328100821,0.9921121563153628
1.1400000000000001,0.4965603969631524,0.0032003597075735963,0.9922442181925013
1.1500000000000001,0.49659100890804686,0.003061194489447005,0.9923692136865536
1.16,0.4966203141767669,0.002930526872003769,0.9924875805395508
1.17,0.49664839244090647,0.0028078264139590687,0.9925997291474875
1.18,0.4966753183991509,0.002692595824441523,0.9927060442694293
1.19,0.49670116208806186,0.002584368891097965,0.9928068866297546
1.2,0.49672598917343885,0.002482708537699873,0.9929025944203624
1.21,0.49674986122347015,0.002387205003127268,0.9929934847086916
1.22,0.4967728359648121,0.002297474134196053,0.9930798547582536
1.23,0.4967949675226638,0.0022131557851687183,0.99316198326619
1.24,0.4968163066458366,0.0021339123172824377,0.9932401315234984
1.25,0.49683690091775745,0.002059427192086282,0.9933145445031681
1.26,0.49685679495428414,0.0019894036526674646,0.993385451879744
1.27,0.4968760305891573,0.0019235634873172253,0.9934530689855994
1.28,0.49689464704786196,0.0018616458704648338,0.9935175977072541
1.29,0.49691268111062237,0.0018034062760411414,0.9935792273255799
1.3,0.49693016726521017,0.0017486154587788346,0.9936381353038299
1.31,0.4969471378502018,0.0016970584991592205,0.9936944880259799
1.32,0.49696362318928244,0.0016485339080659074,0.9937484414893023
1.33,0.49697965171715636,0.001602852787391162,0.9938001419534306
1.34,0.4969952500975873,0.0015598380430993481,0.9938497265488728
1.35,0.4970104433340622,0.001519323647485526,0.9938973238476563
1.36,0.4970252548735375,0.001481153947529101,0.9939430543980572
1.37,0.49703970670370246,0.0014451830164935783,0.9939870312262256
1.3800000000000001,0.49705381944416277,0.0014112740460307856,0.9940293603060757
1.3900000000000001,0.4970676124319257,0.0013792987762950345,0.9940701410001742
1.4000000000000001,0.49708110380154236,0.0013491369616621114,0.9941094664727812
1.41,0.49709431056024084,0.0013206758698477423,0.9941474240772734
1.42,0.49710724865836425,0.0012938098123404403,0.9941840957193782
1.43,0.49711993305540586,0.0012684397041579417,0.9942195581973716
1.44,0.49713237778191727,0.0012444726511423696,0.9942538835214876
1.45,0.4971445959975477,0.001221821563041414,0.9942871392130535
1.46,0.49715660004545525,0.0012004047907594904,0.9943193885848844
1.47,0.4971684015033183,0.001180145786306108,0.9943506910045286
1.48,0.497180011231158,0.0011609727839727467,0.9943811021405642
1.49,0.49719143941617255,0.0011428185014553114,0.9944106741939363
1.5,0.49720269561476893,0.0011256198596380604,0.9944394561144636
1.51,0.49721378879196804,0.001109317719909175,0.9944674938041766
1.52,0.49722472735834683,0.0010938566378815848,0.994494830307642
1.53,0.49723551920467196,0.0010791846325145847,0.9945215059906
1.54,0.49724617173436847,0.0010652529696508872,0.9945475587072099
1.55,0.4972566918939595,0.0010520159591030586,0.9945730239571888
1.56,0.4972670862016036,0.00103943076440971,0.9945979350328061
1.57,0.4972773607738484,0.0010274572244790448,0.9946223231567825
1.58,0.4972875213507123,0.0010160576863910808,0.9946462176117129
1.59,0.49729757331919866,0.0010051968486360474,0.9946696458611525
1.6,0.4973075217353403,0.0009948416141662309,0.9946926336634264
1.61,0.4973173713448665,0.0009849609526140558,0.9947152051779922
1.62,0.49732712660257783,0.000975525771135577,0.994737383065471
1.6300000000000001,0.4973367916905111,0.0009665087933248385,0.9947591885812754
1.6400000000000001,0.49734637053496794,0.0009578844456831882,0.9947806416632706
1.6500000000000001,0.49735586682247995,0.0009496287512035796,0.9948017610142764
1.6600000000000001,0.49736528401477587,0.0009417192295921307,0.9948225641790861
1.67,0.49737462536281307,0.0009341348037231746,0.9948430676167807
1.68,0.49738389391993265,0.000926855711959751,0.9948632867687366
1.69,0.49739309255419195,0.0009198634259309558,0.9948832361219693
1.7,0.4974022239599266,0.0009131405734650323,0.9949029292689109
1.71,0.4974112906685899,0.0009066708663300506,0.9949223789631965
1.72,0.4974202950589149,0.0009004390324976576,0.9949415971721219
1.73,0.4974292393664412,0.0008944307526289943,0.9949605951256427
1.74,0.4974381256924466,0.0008886326005432046,0.9949793833625502
1.75,0.49744695601232064,0.0008830319874003958,0.9949979717735737
1.76,0.4974557321834143,0.0008776171093703102,0.9950163696418205
1.77,0.4974644559524002,0.0008723768985843153,0.9950345856808428
1.78,0.49747312896217144,0.0008673009771262622,0.9950526280699367
1.79,0.4974817527583108,0.0008623796139380916,0.9950705044878865
1.8,0.4974903287951546,0.0008576036843792271,0.9950882221438205
1.81,0.49749885844147795,0.000852964632338549,0.9951057878067783
1.82,0.49750734298582505,0.0008484544347104109,0.9951232078331422
1.83,0.49751578364150584,0.0008440655680791113,0.9951404881922792
1.84,0.49752418155128086,0.0008397909775024863,0.9951576344908613
1.85,0.4975325377917532,0.0008356240472324642,0.995174651995362
1.86,0.49754085337748594,0.0008315585732725509,0.9951915456533538
1.87,0.4975491292648625,0.0008275887376537842,0.9952083201134387
1.8800000000000001,0.4975573663557055,0.0008237090843016718,0.9952249797437346
1.8900000000000001,0.49756556550066994,0.0008199144964389452,0.9952415286496441
1.9000000000000001,0.4975737275024236,0.0008162001753709517,0.9952579706899477
1.9100000000000001,0.49758185311862985,0.0008125616206247413,0.9952743094924593
1.92,0.49758994306474286,0.0008089946113004512,0.9952905484681417
1.93,0.497597998016629,0.0008054951886142139,0.9953066908248834
1.94,0.4976060186130242,0.0008020596395221682,0.9953227395800605
1.95,0.49761400545783785,0.0007986844813646645,0.9953386975723778
1.96,0.49762195912231255,0.0007953664474675938,0.9953545674729779
1.97,0.49762988014704906,0.0007921024736523343,0.995370351795966
1.98,0.497637769043905,0.0007888896855955509,0.9953860529082608
1.99,0.4976456262977745,0.0007857253869507643,0.9954016730384813
2.0,0.4976534523682569,0.0007826070482414463,0.995417214285846
2.0100000000000002,0.4976612476912212,0.0007795322964318954,0.9954326786280666
2.02,0.4976690126802729,0.0007764989051676888,0.9954480679290868
2.0300000000000002,0.4976767477281288,0.0007735047855908287,0.9954633839458108
2.04,0.49768445320790655,0.0007705479777753824,0.9954786283352213
2.05,0.4976921294743331,0.0007676266426560277,0.9954938026601746
2.06,0.497699776864878,0.0007647390544898716,0.9955089083955359
2.07,0.4977073957008158,0.0007618835937789449,0.9955239469335447
2.08,0.4977149862882221,0.000759058740626495,0.9955389195888629
2.09,0.4977225489189074,0.0007562630685304386,0.9955538276036089
2.1,0.4977300838712928,0.0007534952385439555,0.995568672151656
2.11,0.49773759141123086,0.0007507539938046206,0.9955834543429011
2.12,0.497745071792775,0.0007480381544143656,0.9955981752273201
2.13,0.4977525252589014,0.0007453466126390642,0.9956128357986799
2.14,0.4977599520421853,0.0007426783283921659,0.9956274369978616
2.15,0.49776735236543557,0.0007400323250243759,0.9956419797163711
2.16,0.4977747264422891,0.0007374076853519875,0.9956564647991522
2.17,0.4977820744777686,0.0007348035479549988,0.9956708930476788
2.18,0.49778939666880556,0.0007322191036938654,0.9956852652225169
2.19,0.49779669320472997,0.0007296535924409822,0.9956995820458211
2.2,0.4978039642677303,0.0007271063000344859,0.9957138442038832
2.21,0.4978112100332843,0.0007245765554000696,0.9957280523491234
2.22,0.49781843067056303,0.0007220637278707034,0.995742207102355
2.23,0.49782562634280964,0.0007195672246591347,0.9957563090545846
2.24,0.49783279720769463,0.0007170864884994301,0.995770358768954
2.25,0.497839943417649,0.0007146209954344453,0.9957843567824393
2.2600000000000002,0.4978470651201763,0.0007121702527329911,0.9957983036073703
2.27,0.4978541624581458,0.000709733796948009,0.9958121997330494
2.2800000000000002,0.4978612355700666,0.0007073111920856692,0.9958260456270578
2.29,0.4978682845903457,0.0007049020279066067,0.9958398417367598
2.3000000000000003,0.49787530964952875,0.0007025059183014328,0.995853588490221
2.31,0.49788231087452683,0.0007001224998099411,0.9958672862978029
2.32,0.4978892883888288,0.0006977514301971024,0.9958809355528873
2.33,0.4978962423127001,0.0006953923871284131,0.9958945366330101
2.34,0.4979031727633695,0.0006930450669391909,0.9959080899009336
2.35,0.4979100798552042,0.0006907091834720715,0.9959215957054556
2.36,0.49791696369987404,0.0006883844669861806,0.9959350543822438
2.37,0.49792382440650534,0.0006860706631307335,0.9959484662545909
2.38,0.4979306620818253,0.0006837675319942061,0.9959618316342715
2.39,0.4979374768302974,0.0006814748472062205,0.9959751508221696
2.4,0.4979442687542483,0.0006791923950935863,0.9959884241089096
2.41,0.49795103795398726,0.0006769199738958731,0.9960016517755382
2.42,0.4979577845279174,0.0006746573930153877,0.9960148340939489
2.43,0.4979645085726408,0.0006724044723388057,0.9960279713276721
2.44,0.4979712101830565,0.0006701610415705717,0.996041063732067
2.45,0.4979778894524529,0.0006679269396413168,0.9960541115551346
2.46,0.49798454647259416,0.0006657020141232373,0.9960671150376533
2.47,0.4979911813338011,0.0006634861206956222,0.9960800744137368
2.48,0.4979977941250276,0.0006612791226512593,0.9960929899112977
2.49,0.49800438493393173,0.0006590808904154533,0.9961058617522274
2.5,0.4980109538469428,0.0006568913011093636,0.9961186901528857
2.5100000000000002,0.4980175009493242,0.0006547102381366133,0.9961314753243801
2.52,0.4980240263252321,0.0006525375907971087,0.9961442174728806
2.5300000000000002,0.4980305300577713,0.0006503732539165363,0.996156916799818
2.54,0.4980370122290464,0.0006482171275086545,0.9961695735022471
2.5500000000000003,0.498043472920211,0.0006460691164635879,0.9961821877731438
2.56,0.49804991221151335,0.0006439291302339667,0.9961947598014185
2.57,0.49805633018233897,0.0006417970825598585,0.9962072897723324
2.58,0.4980627269112511,0.0006396728912097194,0.9962197778676886
2.59,0.49806910247602837,0.0006375564777306054,0.9962322242659529
2.6,0.49807545695370053,0.0006354477672151582,0.9962446291424484
2.61,0.4980817904205813,0.0006333466880779848,0.9962569926694723
2.62,0.4980881029523,0.0006312531718684511,0.9962693150166829
2.63,0.49809439462383065,0.0006291671530655463,0.9962815963509446
2.64,0.4981006655095197,0.0006270885689033557,0.9962938368366525
2.65,0.4981069156831118,0.0006250173592044162,0.9963060366358307
2.66,0.498113145217774,0.0006229534662228198,0.9963181959082484
2.67,0.49811935418611897,0.000620896834496143,0.9963303148115258
2.68,0.49812554266022596,0.0006188474107019281,0.996342393501195
2.69,0.49813171071166135,0.0006168051435376243,0.9963544321309493
2.7,0.4981378584114972,0.0006147699835872267,0.9963664308525263
2.71,0.4981439858303294,0.0006127418832219345,0.996378389816059
2.72,0.4981500930382942,0.0006107207964802908,0.9963903091698868
2.73,0.49815618010508395,0.0006087066789744245,0.9964021890608258
2.74,0.4981622470999619,0.0006066994877937493,0.996414029634156
2.75,0.49816829409177604,0.0006046991814176562,0.9964258310337216
2.7600000000000002,0.49817432114897237,0.0006027057196340336,0.9964375934019994
2.77,0.49818032833960696,0.0006007190634604088,0.9964493168801353
2.7800000000000002,0.49818631573135763,0.000598739175069929,0.9964610016080012
2.79,0.49819228339153493,0.0005967660177275902,0.9964726477243059
2.8000000000000003,0.4981982313870921,0.0005947995557181618,0.9964842553665211
2.81,0.4982041597846351,0.000592839754299912,0.9964958246711454
2.82,0.4982100686504315,0.0005908865796366847,0.9965073557734979
2.83,0.49821595805041896,0.0005889399987444533,0.996518848807868
2.84,0.4982218280502135,0.0005869999794514303,0.9965303039076566
2.85,0.498227678715117,0.0005850664903472747,0.9965417212052757
2.86,0.4982335101101243,0.0005831395007339313,0.99655310083217
2.87,0.4982393222999303,0.0005812189805971424,0.9965644429190275
2.88,0.4982451153489358,0.0005793049005505147,0.9965757475955137
2.89,0.498250889321254,0.0005773972318228737,0.9965870149907052
2.9,0.49825664428071603,0.0005754959462032305,0.9965982452326761
2.91,0.4982623802908762,0.0005736010160192318,0.9966094384488328
2.92,0.4982680974150173,0.0005717124141100594,0.9966205947658645
2.93,0.4982737957161552,0.0005698301137914475,0.9966317143096706
2.94,0.4982794752570436,0.0005679540888369973,0.9966427972055242
2.95,0.49828513610017805,0.0005660843134444372,0.996653843577929
2.96,0.4982907783078003,0.0005642207622227004,0.9966648535508276
2.97,0.49829640194190195,0.0005623634101684873,0.9966758272475029
2.98,0.49830200706422834,0.0005605122326387214,0.99668676479054
