time,theta,theta_dot,tau
0.0,0.01,1.0,5
0.01,0.02898,1.8980000000000001,5
0.02,0.055577444000000004,2.6597444000000006,4.786702000000002
0.03,0.07985298658320004,2.427554258320004,0.22449893560001577
0.04,0.10293966507060495,2.308667848740491,0.6991980678456375
0.05,0.12479326796835624,2.1853602897751285,0.640735794614038
0.06,0.1454902963918186,2.069702842346235,0.639186175711453
0.07,0.16509066844117679,1.9600372049358186,0.6320135305128538
0.08,0.18365246492719695,1.856179648602016,0.6258214892400726
0.09,0.20123055709443227,1.7578092167235329,0.61989012983579
0.1,0.21787693186775858,1.6646374773326313,0.614276468501691
0.11,0.233640827758156,1.5763895890397428,0.6089562290696318
0.12,0.24856888182609008,1.492805406793408,0.603914711046353
0.13,0.26270526694769336,1.413638512160326,0.5991371120573845
0.14,0.2760918220330007,1.338655508530734,0.5946095048798954
0.15,0.28876817534224203,1.2676353309241326,0.590318688265361
0.16,0.30077186128884853,1.2003685946606515,0.5862521594869028
0.17,0.31213843107077116,1.1366569781922635,0.5823980762772347
0.18,0.3229015574564688,1.076312638569766,0.5787452220544145
0.19,0.3330931340343844,1.019157657791561,0.5752829728503279
0.2,0.3427433692184406,0.9650235184056194,0.5720012660004565
0.21,0.35188087528662754,0.9137506068186907,0.568890570486607
0.22,0.3605327527151165,0.8651877428488939,0.5659418588469887
0.23,0.36872467005646586,0.8191917341349405,0.5631465805697964
0.24,0.3764809395973543,0.7756269540888425,0.5604966368934461
0.25,0.38382458901883426,0.734364942147995,0.5579843569375376
0.26,0.3907774292703195,0.6952840251485253,0.5556024750954833
0.27,0.3973601188573581,0.6582689587038608,0.5533441096212601
0.28,0.4035922247326735,0.6232105875315386,0.5512027423476775
0.29,0.40949227996994514,0.590005523727165,0.5491721994765748
0.3,0.4150778383903163,0.5585558420371157,0.5472466333832813
0.31,0.42036552630263646,0.5287687912320127,0.5454205053833592
0.32,0.4253710915099373,0.5005565207300846,0.5436885694090026
0.33,0.4301094497265855,0.47383582166481714,0.5420458565486421
0.34,0.43459472854292136,0.4485278816335895,0.5404876604028557
0.35000000000000003,0.43884030906696714,0.4245580524045765,0.5390095232146512
0.36,0.44285886536593766,0.4018556298970508,0.5376072227316269
0.37,0.44666240182380634,0.38035364578686726,0.5362767597635454
0.38,0.4502622885250326,0.3599886701226239,0.5350143463960233
0.39,0.45366929476874207,0.34070062437094595,0.5338163948279546
0.4,0.45689362081213947,0.32243260433973736,0.5326795067981722
0.41000000000000003,0.459944927936715,0.30513071245755213,0.531600463571082
0.42,0.4628323669258617,0.2887438989146705,0.530576216451083
0.43,0.46556460503783903,0.2732238111977292,0.5296038777984904
0.44,0.46814985155358313,0.2585246515744074,0.5286807125200945
0.45,0.4705958819746637,0.24460304210805411,0.5278041300090204
0.46,0.47291006094270865,0.23141789680449873,0.5269716765109138
0.47000000000000003,0.4750993639478499,0.2189303005141228,0.5261810278930783
0.48,0.4771703978901731,0.20710339423232424,0.5254299827959186
0.49,0.47912942055477614,0.19590226646030137,0.524716456146221
0.5,0.4809823590578348,0.1852938503058669,0.5240384730127545
0.51,0.48273482731804673,0.17524682602118938,0.5233941627873806
0.52,0.48439214260494656,0.16573152868998098,0.5227817536725994
0.53,0.4859593412128688,0.15671986079222405,0.5221995674611524
0.54,0.48744119330675506,0.1481852093886244,0.5216460145909825
0.55,0.4888422169835626,0.14010236768075712,0.5211195894617309
0.56,0.4901666915907193,0.13244746071566668,0.5206188659984889
0.5700000000000001,0.49141867034087916,0.1251978750159873,0.5201424934501557
0.58,0.49260199226016066,0.11833219192814835,0.519689192409678
0.59,0.49372029350508245,0.1118301244921814,0.5192577510444001
0.6,0.4947770180815541,0.10567245764716496,0.518847021526091
0.61,0.4957754279975132,0.09984099159590845,0.518455916648854
0.62,0.4967186128791346,0.09431848816214039,0.5180834066266271
0.63,0.49760949907895335,0.08908861998187721,0.5177285160588889
0.64,0.4984508583027479,0.08413592237945262,0.517390321057769
0.65,0.499245315780609,0.07944574778611228,0.5170679465257725
0.66,0.49999535800628,0.07500422256709634,0.5167605635785854
0.67,0.5007033400675771,0.07079820612970843,0.5164673871028886
0.68,0.5013714925894976,0.0668152521920514,0.5161876734441462
0.6900000000000001,0.5020019283104789,0.0630435720981218,0.5159207182158754
0.7000000000000001,0.5025966483111911,0.059472000071225696,0.5156658542250593
0.71,0.5031575479142238,0.05608996030327412,0.5154224495070461
0.72,0.5036864222720536,0.052887435782982085,0.5151899054644007
0.73,0.504184971659764,0.04985493877102957,0.5149676551037821
0.74,0.5046548064881161,0.04698348283521856,0.5147551613662237
0.75,0.5050974520517487,0.04426455636325849,0.514551915545925
0.76,0.5055143530264976,0.04169009747489359,0.5143574357915535
0.77,0.5059068777290953,0.03925247025976346,0.5141712656882937
0.78,0.5062763221518011,0.03694444227058288,0.5139929729130741
0.79,0.506623913783858,0.03475916320569236,0.5138221479626399
0.8,0.5069508152310355,0.03269014471775343,0.5136584029470095
0.81,0.5072581276439297,0.03073124128942509,0.5135013704482705
0.8200000000000001,0.5075468939651241,0.02887663211942941,0.5133507024386639
0.8300000000000001,0.5078181020047813,0.02712080396571923,0.5132060692562879
0.84,0.5080726873537326,0.025458534895125427,0.5130671586346719
0.85,0.5083115361426487,0.02388487889160867,0.5129336747837115
0.86,0.508535487655427,0.022395151277828082,0.51280533751955
0.87,0.5087453368044957,0.020984914906870718,0.5126818814395542
0.88,0.5089418364753322,0.019649967083650795,0.5125630551418315
0.89,0.5091256997471051,0.018386327177288504,0.5124486204853461
0.9,0.509297601995985,0.017190224887985456,0.5123383518892342
0.91,0.5094581828873244,0.01605808913394043,0.5122320356697525
0.92,0.5096080482625773,0.014986537525294092,0.5121294694110629
0.93,0.5097477719265207,0.013972366394337039,0.5120304613704391
0.9400000000000001,0.5098778973400453,0.013012541352460799,0.5119348299143079
0.9500000000000001,0.5099989392235051,0.012104188345987038,0.5118424029839069
0.96,0.5101113850753524,0.011244585184718563,0.5117530175901563
0.97,0.5102156966105311,0.010431153517880026,0.5116665193335189
0.98,0.5103123111228737,0.00966145123425262,0.5115827619513341
0.99,0.5104016427755099,0.00893316526362729,0.5115016068868733
1.0,0.5104840838230983,0.008244104758839903,0.5114229228833866
1.01,0.5105600057694764,0.007592194637809651,0.511346585597367
1.02,0.5106297604641461,0.006975469466978939,0.5112724772342276
1.03,0.5106936811408244,0.006392067667828166,0.5112004862018817
1.04,0.5107520834011195,0.005840226029518707,0.5111305067831912
1.05,0.5108052661462344,0.0053182745114953404,0.5110624388257621
1.06,0.5108535124594411,0.004824631320666067,0.5109961874478357
1.07,0.5108970904419279,0.004357798248673844,0.510931662759813
1.08,0.5109362540044841,0.003916356255612424,0.5108687796009577
1.09,0.5109712436173538,0.0034989612869790014,0.5108074572891231
1.1,0.5110022870204709,0.0031043403117131433,0.510747619384514
1.11,0.5110295998961659,0.0027312875695020325,0.510689193465272
1.12,0.5110533865063308,0.0023786610164881644,0.5106321109158476
1.1300000000000001,0.5110738402959172,0.0020453789586397037,0.5105763067253326
1.1400000000000001,0.511091144464548,0.0017304168630739186,0.5105217192974081
1.1500000000000001,0.5111054725079262,0.0014328043378230065,0.5104682902698303
1.16,0.5111169887306387,0.001151622271251212,0.5104159643439787
1.17,0.5111258487318634,0.0008860001224697372,0.510364689122357
1.18,0.5111321998654146,0.0006351133551234339,0.5103144149563668
1.19,0.5111361816754799,0.00039818100653621845,0.5102650948000402
1.2,0.5111379263093347,0.00017446338547817905,0.5102166840734579
1.21,0.5111375589082496,-3.6740108509997785e-05,0.5101691405321329
1.22,0.5111351979777442,-0.0002360930505428355,0.5101224241438305
1.23,0.5111309557382766,-0.0004242239467617321,0.5100764969713784
1.24,0.5111249384574045,-0.0006017280872080816,0.510031323062664
1.25,0.5111172467643955,-0.0007691693008978934,0.5099868683453513
1.26,0.5111079759482139,-0.000927081618167897,0.5099431005275965
1.27,0.5110972162397631,-0.001075970845082303,0.5098999890045579
1.28,0.5110850530792153,-0.0012163160547916392,0.5098575047686753
1.29,0.5110715673692152,-0.0013485710000083312,0.509815620325736
1.3,0.5110568357147065,-0.0014731654508697905,0.5097743096149038
1.31,0.5110409306500854,-0.001590506462117553,0.5097335479330328
1.32,0.5110239208543519,-0.0017009795733503314,0.5096933118628627
1.33,0.5110058713548943,-0.0018049499457625413,0.5096535792056157
1.34,0.5109868437205044,-0.0019027634389827193,0.5096143289159121
1.35,0.5109668962441959,-0.0019947476308465003,0.5095755410416941
1.36,0.5109460841163616,-0.002081212783431647,0.509537196665847
1.37,0.5109244595887823,-0.0021624527579303617,0.5094992778521522
1.3800000000000001,0.5109020721299696,-0.002238745881271415,0.5094617675931119
1.3900000000000001,0.5108789685723006,-0.002310355766898104,0.5094246497612005
1.4000000000000001,0.5108551932513784,-0.0023775320922279916,0.5093879090622021
1.41,0.5108307881380283,-0.0024405113350100156,0.5093515309913543
1.42,0.5108057929633212,-0.0024995174707161455,0.5093155017919926
1.43,0.5107802453369888,-0.0025547626332342592,0.5092798084153726
1.44,0.5107541808595842,-0.0026064477404574354,0.5092444384842558
1.45,0.5107276332287141,-0.0026547630870139955,0.5092093802565727
1.46,0.5107006343396587,-0.0026998889055372018,0.509174622592591
1.47,0.5106732143806753,-0.0027419958983429587,0.5091401549228614
1.48,0.5106454019232656,-0.0027812457409693795,0.5091059672183716
1.49,0.5106172240076732,-0.0028177915592379537,0.5090720499614381
1.5,0.5105887062238643,-0.0028517783808886536,0.5090383941198007
1.51,0.5105598727882285,-0.0028833435635907626,0.5090049911199095
1.52,0.510530746616227,-0.0029126172001438804,0.5089718328236675
1.53,0.5105013493912031,-0.0029397225023979293,0.5089389115048848
1.54,0.5104717016295545,-0.0029647761648551266,0.5089062198277181
1.55,0.5104418227424647,-0.0029878887089695274,0.508873750826555
1.56,0.5104117310943702,-0.0030091648094536074,0.5088414978855595
1.57,0.5103814440583391,-0.0030287036031091566,0.5088094547213656
1.58,0.5103509780685239,-0.003046598981512089,0.5087776153647698
1.59,0.510320348669842,-0.0030629398681899012,0.5087459741443788
1.6,0.5102895705650311,-0.0030778104810917197,0.508714525671238
1.61,0.5102586576592183,-0.0030912905812797878,0.5086832648235449
1.62,0.5102276231021343,-0.003103455708402375,0.5086521867329654
1.6300000000000001,0.5101964793280961,-0.003114377403817964,0.5086212867708552
1.6400000000000001,0.5101652380938781,-0.003124123421791042,0.5085905605363217
1.6500000000000001,0.5101339105145809,-0.003132757929722735,0.5085600038433241
1.6600000000000001,0.5101025070976051,-0.003140341697579102,0.5085296127104377
1.67,0.5100710377748301,-0.0031469322774936473,0.5084993833492428
1.68,0.5100395119330922,-0.0031525841737933104,0.5084693121545849
1.69,0.5100079384430516,-0.0031573490040542385,0.5084393956948908
1.7,0.5099763256865353,-0.003161275651634904,0.5084096307031212
1.71,0.5099446815824331,-0.0031644104102133306,0.5083800140678257
1.72,0.5099130136112274,-0.0031667971205630863,0.5083505428255777
1.73,0.5098813288382247,-0.0031684773002755794,0.5083212141523834
1.74,0.5098496339355602,-0.003169490266457825,0.5082920253571757
1.75,0.5098179352030398,-0.003169873252035366,0.5082629738744435
1.76,0.5097862385878807,-0.003169661515901784,0.50823405725769
1.77,0.5097545497034078,-0.003168888447293056,0.5082052731729735
1.78,0.509722873846763,-0.003167585664490441,0.5081766193937743
1.79,0.5096912160156779,-0.003165783108508985,0.508148093794425
1.8,0.5096595809243609,-0.0031635091316941587,0.5081196943454975
1.81,0.509627973018544,-0.003160790581689582,0.5080914191085367
1.82,0.509596396489734,-0.003157652880998846,0.5080632662311529
1.83,0.5095648552887116,-0.0031541201022378287,0.5080352339430396
1.84,0.509533353138316,-0.0031502150395581853,0.508007320550991
1.85,0.5095018935455548,-0.003145959276133342,0.5079795244356612
1.86,0.509470479813072,-0.0031413732482725885,0.5079518440467918
1.87,0.5094391150500128,-0.0031364763059239464,0.507924277900679
1.8800000000000001,0.5094078021823109,-0.0031312867701949573,0.5078968245756958
1.8900000000000001,0.5093765439624343,-0.003125821987656224,0.5078694827099071
1.9000000000000001,0.509345342978615,-0.00312009838192277,0.5078422509972734
1.9100000000000001,0.5093142016635911,-0.0031141315023893667,0.5078151281853206
1.92,0.5092831223028864,-0.0031079360704678147,0.5077881130720042
1.93,0.5092521070426529,-0.0031015260233501593,0.5077612045032408
1.94,0.5092211578970982,-0.0030949145554647946,0.5077344013704046
1.95,0.5091902767555206,-0.003088114157755156,0.507707702607914
1.96,0.509159465388972,-0.003081136654857602,0.5076811071911308
1.97,0.5091287254565688,-0.003073993240325684,0.5076546141342029
1.98,0.5090980585114687,-0.0030666945100160823,0.507628222487954
1.99,0.5090674660065322,-0.003059250493655069,0.5076019313382657
2.0,0.509036949299684,-0.0030516706848131956,0.507575739803914
2.0100000000000002,0.5090065096589917,-0.003043964069226662,0.5075496470352101
2.02,0.508976148267475,-0.0030361391516766805,0.5075236522121284
2.0300000000000002,0.5089458662276612,-0.003028203981374305,0.5074977545431485
2.04,0.5089156645659001,-0.0030201661761201696,0.5074719532632448
2.05,0.5088855442364496,-0.0030120329450450114,0.5074462476332158
2.06,0.5088555061253468,-0.0030038111102797574,0.5074206369377534
2.07,0.5088255510540725,-0.0029955071274291247,0.5073951204844601
2.08,0.5087956797830235,-0.0029871271048898798,0.5073696976030542
2.09,0.5087658930148005,-0.0029786768223042537,0.5073443676435068
2.1,0.5087361913973217,-0.0029701617478749155,0.507319129975795
2.11,0.5087065755267727,-0.0029615870549012757,0.5072939839882524
2.12,0.5086770459503994,-0.0029529576373230324,0.5072689290872132
2.13,0.5086476031691537,-0.002944278124576931,0.5072439646954684
2.14,0.5086182476401985,-0.0029355528955179832,0.5072190902521599
2.15,0.5085889797792815,-0.002926786091696936,0.5071943052115447
2.16,0.5085597999629816,-0.00291798162998586,0.5071696090419885
2.17,0.5085307085308381,-0.0029091432143502453,0.5071450012261668
2.18,0.5085017057873656,-0.0029002743472492593,0.507120481259168
2.19,0.5084727920039639,-0.0028913783401724284,0.5070960486491252
2.2,0.5084439674207252,-0.0028824583238671033,0.5070717029154043
2.21,0.5084152322481469,-0.0028735172578301317,0.5070474435889765
2.22,0.5083865866687527,-0.002864557939417527,0.5070232702112949
2.23,0.5083580308386288,-0.0028555830123866135,0.5069991823341985
2.24,0.5083295648888778,-0.00284659497509842,0.5069751795188765
2.25,0.5083011889269964,-0.0028375961881412937,0.5069512613361142
2.2600000000000002,0.5082729030381792,-0.0028285888817149484,0.5069274273650575
2.27,0.5082447072865547,-0.0028195751624511198,0.5069036771936408
2.2800000000000002,0.5082166017163543,-0.002810557020043884,0.5068800104173653
2.29,0.5081885863530206,-0.0028015363333726714,0.5068564266396884
2.3000000000000003,0.5081606612042563,-0.0027925148764241054,0.5068329254710771
2.31,0.5081328262610176,-0.002783494323865236,0.5068095065288386
2.32,0.508105081498455,-0.0027744762562633843,0.5067861694370943
2.33,0.5080774268768039,-0.0027654621651063507,0.5067629138261085
2.34,0.5080498623422287,-0.0027564534575155323,0.5067397393322048
2.35,0.5080223878276212,-0.0027474514607531623,0.5067166455972828
2.36,0.507995003253357,-0.0027384574264232167,0.5066936322688944
2.37,0.5079677085280122,-0.0027294725344836714,0.5066706989998431
2.38,0.5079405035490412,-0.0027204978971021514,0.5066478454476779
2.39,0.5079133882034192,-0.002711534562197008,0.5066250712750159
2.4,0.5078863623682502,-0.0027025835169023275,0.5066023761487941
2.41,0.5078594259113428,-0.0026936456907481845,0.5065797597405698
2.42,0.5078325786917551,-0.002684721958767159,0.5065572217258738
2.43,0.5078058205603116,-0.002675813144351339,0.5065347617844507
2.44,0.5077791513600911,-0.0026669200220532352,0.5065123795996265
2.45,0.50775257092689,-0.0026580433201135157,0.5064900748587631
2.46,0.5077260790896599,-0.002649183722998664,0.5064678472524075
2.47,0.5076996756709232,-0.0026403418736738273,0.5064456964747848
2.48,0.5076733604871646,-0.002631518375862766,0.5064236222231416
2.49,0.5076471333492037,-0.0026227137960828464,0.5064016241981328
2.5,0.5076209940625469,-0.0026139286656840545,0.5063797021031563
2.5100000000000002,0.5075949424277199,-0.0026051634827045566,0.5063578556446023
2.52,0.5075689782405836,-0.0025964187136291593,0.5063360845317446
2.5300000000000002,0.5075431012926325,-0.002587694795103449,0.5063143884763975
2.54,0.5075173113712774,-0.0025789921355071554,0.5062927671930623
2.5500000000000003,0.5074916082601124,-0.002570311116498828,0.5062712203985655
2.56,0.5074659917391686,-0.0025616520943741706,0.5062497478124863
2.57,0.5074404615851534,-0.0025530154015153497,0.5062283491562757
2.58,0.5074150175716773,-0.0025444013476122163,0.5062070241539114
2.59,0.5073896594694685,-0.0025358102208843302,0.5061857725315106
2.6,0.5073643870465759,-0.002527242289256085,0.5061645940171675
2.61,0.5073392000685617,-0.0025186978014193925,0.5061434883411313
2.62,0.5073140982986829,-0.0025101769878777577,0.5061224552355602
2.63,0.5072890814980633,-0.0025016800619590248,0.5061014944343377
2.64,0.5072641494258566,-0.0024932072206702268,0.5060806056735278
2.65,0.5072393018394002,-0.0024847586456413634,0.5060597886906658
2.66,0.5072145384943613,-0.0024763345039023137,0.5060390432252748
2.67,0.507189859144874,-0.0024679349487224528,0.5060183690183094
2.68,0.5071652635436709,-0.0024595601203107583,0.5059977658125713
2.69,0.5071407514422053,-0.0024512101465626133,0.5059772333522562
2.7,0.5071163225907682,-0.0024428851437036025,0.505956771383219
2.71,0.5070919767385993,-0.0024345852168898984,0.505936379652985
2.72,0.5070677136339904,-0.0024263104608946684,0.5059160579101305
2.73,0.5070435330243843,-0.002418060960606209,0.5058958059049854
2.74,0.5070194346564687,-0.00240983679155952,0.5058756233893147
2.75,0.5069954182762636,-0.002401638020515843,0.5058555101159073
2.7600000000000002,0.5069714836292047,-0.0023934647058811024,0.5058354658391794
2.77,0.5069476304602232,-0.0023853168981541255,0.505815490314899
2.7800000000000002,0.5069238585138187,-0.002377194640447115,0.5057955832996812
2.79,0.5069001675341308,-0.0023690979687903606,0.5057757445518789
2.8000000000000003,0.5068765572650051,-0.002361026912572265,0.5057559738308262
2.81,0.5068530274500559,-0.0023529814949202403,0.5057362708969791
2.82,0.506829577832726,-0.0023449617329924714,0.5057166355122347
2.83,0.506806208156342,-0.0023369676383988053,0.5056970674391981
2.84,0.506782918164168,-0.0023289992174082715,0.5056775664420953
2.85,0.5067597075994549,-0.0023210564713107935,0.5056581322859512
2.86,0.5067365762054881,-0.002313139396685064,0.5056387647369281
2.87,0.5067135237256314,-0.002305247985666618,0.5056194635622377
2.88,0.5066905499033697,-0.002297382226164772,0.5056002285303073
2.89,0.5066676544823482,-0.002289542102157364,0.5055810594103244
2.9,0.5066448372064094,-0.0022817275938808927,0.5055619559726519
2.91,0.5066220978196293,-0.0022739386780136575,0.5055429179888051
2.92,0.5065994360663497,-0.0022661753279569134,0.5055239452309062
2.93,0.5065768516912103,-0.002258437513951132,0.5055050374724002
2.94,0.5065543444391771,-0.002250725203317187,0.5054861944874044
2.95,0.5065319140555715,-0.002243038360559406,0.5054674160513074
2.96,0.5065095602860956,-0.002235376947585259,0.5054487019401626
2.97,0.5064872828768571,-0.002227740923850556,0.5054300519309765
2.98,0.5064650815743923,-0.002220130246483036,0.5054114658017694
