time,theta,theta_dot,tau
0.0,0.005,0.5,5
0.01,0.014965,0.9964999999999999,5
0.02,0.029850244999999997,1.4885244999999998,5
0.03,0.04960136328499999,1.9751118284999998,5
0.04,0.0730309815501265,2.342961826512651,3.876458298121511
0.05,0.09757440642277655,2.454342487265006,1.377016661949435
0.06,0.1219240185295837,2.434961210680715,0.12405317136589211
0.07,0.14543631332802784,2.351229479844412,-0.471721210769827
0.08,0.1678171989939492,2.2380885665921366,-0.7229750318744816
0.09,0.18895506707806298,2.113786808411377,-0.7954787554900875
0.1,0.20883233417378252,1.9877267095719546,-0.7770015138175292
0.11,0.22747864799976653,1.8646313825983991,-0.7139022659093932
0.12,0.24494621004999997,1.7467562050233447,-0.6305629106210908
0.13,0.26129683336462445,1.6350623314624464,-0.539708505257817
0.14,0.276595222375718,1.5298389011093538,-0.44788752022855505
0.15,0.2909055474359712,1.4310325060253184,-0.3583815610334504
0.16,0.3042897598838867,1.33842124479155,-0.27274989216447665
0.17,0.31680682281437333,1.2517062930486678,-0.19164893542147254
0.18,0.3285124200376757,1.1705597223302404,-0.11526674690309324
0.19,0.33945891138277245,1.0946491345096743,-0.043553052013798776
0.2,0.349695411703976,1.0236500321203565,0.02365925559785076
0.21,0.3592679289169035,0.9572517212927536,0.08659021673793976
0.22,0.36821952714752904,0.8951598230625533,0.14547946159644098
0.23,0.3765904973858203,0.8370970238291262,0.2005690531139157
0.24,0.38441852667054216,0.7828029284721897,0.25209489239373184
0.25,0.3917388613934691,0.7320334722926916,0.3002826379697128
0.26,0.3985844627110345,0.6845601317565374,0.3453459910400314
0.27,0.4049861533045127,0.6401690593478208,0.3874862079227297
0.28,0.410972755375246,0.5986602070733308,0.42689223683151667
0.29,0.41657122008541964,0.5598464710173598,0.4637411605444486
0.3,0.42180674880938207,0.5235528723962442,0.4981987775105501
0.31,0.42670290662612226,0.48961578167401926,0.5304202340163275
0.32,0.4312817285029891,0.45788218768668804,0.5605506624626333
0.33,0.4355638186167087,0.4282090113719556,0.5887258032429883
0.34,0.4395684432421696,0.4004624625460931,0.6150725995433897
0.35000000000000003,0.44331361761860355,0.37451743764339485,0.6397097605846613
0.36,0.4468161871799614,0.3502569561357834,0.6627482920432626
0.37,0.45009190351317513,0.32757163332137007,0.6842919940225789
0.38,0.4531554953854433,0.30635918722682026,0.7044379277469208
0.39,0.4560207351600924,0.2865239774649076,0.723276852513101
0.4,0.4587005009001152,0.26797657400228114,0.7408936345671655
0.41000000000000003,0.4612068344392273,0.2506333539112069,0.7573676295896021
0.42,0.46355099568219305,0.23441612429657518,0.7727730404276978
0.43,0.4657435133792232,0.21925176970301874,0.7871792516436504
0.44,0.46779423260337244,0.20507192241492178,0.8006511423626279
0.45,0.46971235914501247,0.19181265416400045,0.8132493788182775
0.46,0.47150650102356345,0.1794141878550956,0.8250306879091767
0.47000000000000003,0.47318470730366935,0.167820628010589,0.8360481129948156
0.48,0.4747545043908512,0.1569797087181835,0.8463512530838131
0.49,0.47622292997030674,0.14684255794555168,0.8559864864912932
0.5,0.4775965647418981,0.1373634771591383,0.8649971799737572
0.51,0.47888156209443167,0.12849973525335448,0.8734238842839148
0.52,0.480083675853041,0.12021137586093737,0.8813045170273599
0.53,0.48120828622479717,0.1124610371756131,0.8886745336458861
0.54,0.4822604240595422,0.10521378347450754,0.8955670872973194
0.55,0.48324479353534905,0.09843694758068251,0.9020131783545595
0.56,0.4841657933709021,0.09209998355530306,0.9080417941959378
0.5700000000000001,0.48502753666045473,0.08617432895526046,0.9136800399191434
0.58,0.48583386942080536,0.08063327603506608,0.9189532605667285
0.59,0.4865883879339278,0.07545185131224225,0.9238851554151257
0.6,0.4872944549634589,0.07060670295311258,0.928497884842171
0.61,0.487955214918171,0.06607599547120849,0.9328121702555325
0.62,0.4885736080308051,0.06183931126340521,0.9368473875318697
0.63,0.4891523836162031,0.05787755853980561,0.9406216543887844
0.64,0.489694112468525,0.05417288523218948,0.9441519120832351
0.65,0.49020119845345306,0.050708598492803146,0.9474540018047961
0.66,0.4906758893476581,0.047469089420502084,0.9505427361085357
0.67,0.4911202869744059,0.04443976267477995,0.9534319657091199
0.68,0.49153635668100903,0.04160697066031127,0.956134641937864
0.6900000000000001,0.4919259362008611,0.03895795198520872,0.958662875144008
0.7000000000000001,0.4922907439400161,0.03648077391549888,0.9610279893038842
0.71,0.49263238672567905,0.03416427856629635,0.9632405730837819
0.72,0.49295236705154966,0.03199803258706296,0.965310527587339
0.73,0.4932520898526901,0.02997228011404174,0.9672471110022403
0.74,0.49353286884046726,0.028077898777717936,0.9690589803478442
0.75,0.49379593242613673,0.026306358566947064,0.9707542305121117
0.76,0.49404242925977887,0.02464968336421186,0.9723404307532688
0.77,0.4942734334095649,0.02310041497860397,0.9738246588316894
0.78,0.4944899492047081,0.021651579514317534,0.9752135329251956
0.79,0.49469291576393803,0.020296655922989685,0.9765132414718536
0.8,0.49488321122991913,0.019029546598107898,0.9777295710752076
0.81,0.49506165672870767,0.017844549878852672,0.9788679325971914
0.8200000000000001,0.4952290200721018,0.016736334339411147,0.9799333855569428
0.8300000000000001,0.49538601921957987,0.015699914747805382,0.9809306609451165
0.84,0.4955333255154382,0.014730629585834315,0.9818641825568393
0.85,0.4956715667157258,0.013824120028758208,0.9827380869394071
0.86,0.49580132981862507,0.012976310289927346,0.9835562420445809
0.87,0.4959231637110425,0.012183389241744464,0.9843222646699177
0.88,0.496037581643343,0.011441793230047088,0.9850395367671985
0.89,0.4961450635433876,0.010748190004460251,0.98571122069232
0.9,0.4962460581803098,0.010099463692218575,0.9863402734645814
0.91,0.49634098518778685,0.00949270074770458,0.9869294601000906
0.92,0.4964302369559305,0.008925176814366803,0.9874813660795811
0.93,0.49651418040032796,0.008394344439745132,0.9879984090063627
0.9400000000000001,0.4965931586162103,0.007897821588233139,0.9884828495075233
0.9500000000000001,0.4966674924252078,0.007433380899749147,0.9889368014269924
0.96,0.4967374818216668,0.00699893964590354,0.989362241356947
0.97,0.49680340732505046,0.006592550338366237,0.9897610175502558
0.98,0.49686553124452104,0.006212391947057998,0.9901348582539369
0.99,0.49692409886140715,0.0058567616886079634,0.9904853795018946
1.0,0.4969793395348874,0.005524067348024202,0.990814092401407
1.01,0.4970314677358769,0.005212820098951714,0.9911224099464511
1.02,0.49708068401377825,0.004921627790133548,0.9914116533885198
1.03,0.49712717590045674,0.004649188667848008,0.9916830581942078
1.04,0.4971711187555161,0.004394285505940215,0.991937779615228
1.05,0.49721267655668666,0.004155780117052526,0.9921768978974523
1.06,0.497252002638889,0.0039326082202382475,0.9924014231510832
1.07,0.4972892403853078,0.0037237746418806775,0.9926122999052143
1.08,0.49732452387358983,0.0035283488282006606,0.9928104113659095
1.09,0.49735797848008173,0.003345460649188685,0.99299658339847
1.1,0.49738972144483173,0.0031742964750029845,0.9931715882507659
1.11,0.4974198623999031,0.003014095507134733,0.9933361480347311
1.12,0.4974485038633812,0.0028641463478102304,0.9934909379819179
1.1300000000000001,0.497475741701303,0.0027237837921827704,0.9936365894878783
1.1400000000000001,0.49750166555959086,0.002592385828784876,0.9937736929582361
1.1500000000000001,0.4975263592679387,0.0024693708347834956,0.9939028004706072
1.16,0.49754990121747233,0.002354194953360827,0.9940244282633899
1.17,0.49757236471388605,0.0022463496413734625,0.994139059062739
1.18,0.4975938183076488,0.002145359376279193,0.994247144258898
1.19,0.49761432610276823,0.002050779511940531,0.994349105940725
1.2,0.49763394804550504,0.001962194273681156,0.9944453387985397
1.21,0.49765274019434036,0.001879214883531005,0.9945362119031926
1.22,0.49767075497241225,0.0018014778071891832,0.9946220703694391
1.23,0.4976880414035607,0.0017286431148462675,0.9947032369117548
1.24,0.497704645333045,0.0016603929484263755,0.9947800132986648
1.25,0.49772060963392867,0.0015964300883676895,0.9948526817129244
1.26,0.4977359744000634,0.0015364766134714325,0.9949215060233132
1.27,0.49775077712654103,0.0014802726477657845,0.9949867329737438
1.28,0.49776505287842854,0.0014275751887494357,0.9950485932953068
1.29,0.49777883444854565,0.001378157011710429,0.9951073027459045
1.3,0.4977921525049978,0.001331805645216094,0.9951630630827335
1.31,0.4978050357291289,0.001288322413104864,0.9952160629711442
1.32,0.4978175109445159,0.0012475215386982094,0.9952664788348464
1.33,0.4978296032375877,0.0012092293071834402,0.995314475650819
1.34,0.4978413360704115,0.001173283282380083,0.995360207692501
1.35,0.4978527313861551,0.0011395315743610466,0.9954038192247516
1.36,0.4978638097077016,0.0011078321546496293,0.9954454451539141
1.37,0.4978745902298603,0.0010780522158666038,0.9954852116353055
1.3800000000000001,0.4978850909055899,0.0010500675729618934,0.9955232366414668
1.3900000000000001,0.49789532852662327,0.0010237621033353293,0.9955596304935623
1.4000000000000001,0.49790531879885624,0.000999027223296317,0.9955944963580232
1.41,0.49791507641284166,0.0009757613985427237,0.9956279307113414
1.42,0.49792461510970576,0.0009538696864089756,0.995660023774273
1.43,0.49793394774278416,0.0009332633078397211,0.9956908599180394
1.44,0.49794308633525586,0.0009138592471696514,0.9957205180442597
1.45,0.4979520421340346,0.0008955798778756128,0.9957490719399298
1.46,0.49796082566016103,0.0008783526126437455,0.9957765906096443
1.47,0.49796944675592253,0.0008621095761473461,0.9958031385859902
1.48,0.4979779146289134,0.0008467872990842116,0.9958287762200211
1.49,0.49798623789323415,0.0008323264320784061,0.995853559952723
1.5,0.4979944246080157,0.0008186714781535596,0.9958775425688238
1.51,0.49800248231344146,0.0008057705425788374,0.9959007734341918
1.52,0.4980104180644312,0.0007935750989727707,0.9959232987179512
1.53,0.49801823846213694,0.0007820397705757764,0.995945161599841
1.54,0.49802594968339436,0.0007711221257400146,0.995966402464445
1.55,0.4980335575082612,0.0007607824866870448,0.995987059082546
1.56,0.49804106734576825,0.0007509837507008009,0.9960071667809943
1.57,0.4980484842579973,0.0007416912229061765,0.9960267586011253
1.58,0.49805581298259666,0.0007328724599362233,0.9960458654474403
1.59,0.4980630579538339,0.0007244971237221618,0.9960645162260495
1.6,0.49807022332228185,0.0007165368447984486,0.9960827379746168
1.61,0.4980773129732266,0.0007089650944754941,0.996100555983574
1.62,0.4980843305438797,0.0007017570653092439,0.9961179939095145
1.6300000000000001,0.4980912794394731,0.0006948895593441748,0.9961350738813741
1.6400000000000001,0.4980981628483091,0.0006883408835971435,0.9961518165994432
1.6500000000000001,0.49810498375583256,0.0006820907523436945,0.9961682414282635
1.6600000000000001,0.4981117449577899,0.0006761201957388216,0.9961843664832336
1.67,0.4981184490725337,0.000670411474380622,0.9962002087117848
1.68,0.49812509855252773,0.0006649479994021155,0.9962157839690015
1.69,0.49813169569510557,0.0006597142577813683,0.9962311070888181
1.7,0.49813824265253037,0.0006546957424775344,0.9962461919500619
1.71,0.49814474144140153,0.0006498788871172221,0.9962610515385815
1.72,0.4981511939514507,0.0006452510049142766,0.9962756980051295
1.73,0.4981576019537662,0.00064080023155037,0.996290142719508
1.74,0.4981639671084841,0.0006365154717892948,0.9963043963214991
1.75,0.49817029097197935,0.000632386349523911,0.9963184687679039
1.76,0.4981765750035903,0.0006284031610984284,0.9963323693771801
1.77,0.4981828205719067,0.0006245568316386393,0.9963461068706376
1.78,0.4981890289606489,0.0006208388742220347,0.9963596894112293
1.79,0.4981952013741661,0.0006172413517208039,0.9963731246399966
1.8,0.498201338942577,0.0006137568410864488,0.9963864197095748
1.81,0.4982074427265768,0.0006103783999796772,0.9963995813161406
1.82,0.4982135137219325,0.0006070995355684502,0.9964126157290403
1.83,0.49821955286368574,0.0006039141753255535,0.9964255288182144
1.84,0.49822556103008336,0.0006008166397605538,0.9964383260804878
1.85,0.49823153904625217,0.0005978016168808605,0.9964510126633578
1.86,0.4982374876876357,0.0005948641383535288,0.9964635933880751
1.87,0.4982434076832075,0.000591999557178707,0.9964760727704409
1.8800000000000001,0.49824929971847587,0.0005892035268340309,0.9964884550408272
1.8900000000000001,0.4982551644382936,0.0005864719817706695,0.9965007441626599
1.9000000000000001,0.49826100244948524,0.0005838011191641454,0.9965129438496105
1.9100000000000001,0.4982668143233039,0.0005811873818669819,0.9965250575819571
1.92,0.49827260059772843,0.0005786274424529888,0.9965370886215612
1.93,0.4982783617796115,0.0005761181883054464,0.9965490400261041
1.94,0.4982840983466883,0.0005736567076811968,0.9965609146623957
1.95,0.4982898107494549,0.0005712402766598398,0.9965727152185471
1.96,0.49829549941292445,0.0005688663469569251,0.9965844442157136
1.97,0.4983011647382697,0.0005665325345220847,0.9965961040188483
1.98,0.4983068071043585,0.00056423660887806,0.9966076968468253
1.99,0.49831242686919003,0.0005619764831565396,0.9966192247819456
2.0,0.4983180243712378,0.0005597502047735177,0.9966306897787076
2.0100000000000002,0.49832359993070485,0.0005575559467063503,0.9966420936720426
2.02,0.4983291538506985,0.0005553919993627139,0.9966534381853086
2.0300000000000002,0.4983346864183279,0.0005532567629409619,0.9966647249371475
2.04,0.49834019790573103,0.000551148740314405,0.9966759554485373
2.05,0.49834568857103473,0.0005490665303679749,0.9966871311490135
2.06,0.49835115865925234,0.00054700882176078,0.9966982533825159
2.07,0.49835660840312346,0.0005449743871122898,0.9967093234131078
2.08,0.4983620380238989,0.0005429620775424688,0.9967203424299044
2.09,0.49836744773207475,0.0005409708175846235,0.9967313115520965
2.1,0.49837283772807894,0.0005389996004215354,0.9967422318333978
2.11,0.4983782082029133,0.0005370474834336887,0.9967531042663005
2.12,0.4983835593387535,0.0005351135840241213,0.9967639297859026
2.13,0.4983888913095109,0.0005331970757417922,0.9967747092738849
2.14,0.4983942042813571,0.0005312971846219535,0.9967854435616106
2.15,0.49839949841321507,0.0005294131857974168,0.9967961334337
2.16,0.4984047738572181,0.0005275444003011994,0.9968067796307578
2.17,0.4984100307591391,0.0005256901920970999,0.9968173828524103
2.18,0.49841526925879204,0.0005238499652972791,0.9968279437598848
2.19,0.4984204894904076,0.0005220231615562339,0.9968384629784385
2.2,0.4984256915829839,0.0005202092576279734,0.9968489410996104
2.21,0.498430875660615,0.0005184077631117664,0.9968593786836871
2.22,0.498436041842798,0.0005166182182997522,0.9968697762612655
2.23,0.49844119024472006,0.0005148401922044185,0.9968801343355577
2.24,0.49844632097752695,0.0005130732806882751,0.9968904533838889
2.25,0.49845143414857424,0.0005113171047309403,0.9969007338595149
2.2600000000000002,0.4984565298616622,0.0005095713087964357,0.9969109761930399
2.27,0.4984616082172553,0.0005078355593084391,0.9969211807938843
2.2800000000000002,0.49846666931268774,0.0005061095432416893,0.9969313480518086
2.29,0.4984717132423555,0.0005043929667791489,0.9969414783379121
2.3000000000000003,0.4984767400978962,0.000502685554070664,0.9969515720059651
2.31,0.4984817499683569,0.0005009870460692953,0.9969616293934823
2.32,0.49848674294035145,0.0004992971994505599,0.99697165082283
2.33,0.49849171909820733,0.00049761578558804,0.9969816366020502
2.34,0.4984966785241034,0.0004959425896057742,0.9969915870258714
2.35,0.49850162129819825,0.000494277409485849,0.9970015023764879
2.36,0.4985065474987507,0.0004926200552418044,0.9970113829244304
2.37,0.498511457202232,0.0004909703481350944,0.9970212289291963
2.38,0.49851635048343157,0.0004893281199562503,0.9970310406400823
2.39,0.4985212274155549,0.00048769321233320097,0.9970408182966305
2.4,0.498526088070316,0.00048606547611111363,0.9970505621295055
2.41,0.49853093251802344,0.00048444477074037186,0.9970602723607301
2.42,0.4985357608276608,0.0004828309637374182,0.9970699492045544
2.43,0.49854057306696237,0.00048122393015558854,0.9970795928676902
2.44,0.49854536930248333,0.00047962355209908974,0.9970892035498675
2.45,0.49855014959966604,0.0004780297182698843,0.9970987814442795
2.46,0.4985549140229015,0.0004764423235415314,0.997108326737962
2.47,0.49855966263558715,0.00047486126856778865,0.9971178396122427
2.48,0.4985643955001812,0.0004732864594067907,0.9971273202429927
2.49,0.49856911267825293,0.00047171780716919723,0.9971367688009568
2.5,0.49857381423052993,0.00047015522769872623,0.9971461854521596
2.5100000000000002,0.4985785002169426,0.0004685986412695962,0.9971555703581535
2.52,0.4985831706966656,0.0004670479722986008,0.9971649236762388
2.5300000000000002,0.49858782572815635,0.0004655031490778115,0.9971742455597382
2.54,0.49859246536919166,0.0004639641035307505,0.997183536158296
2.5500000000000003,0.4985970896769015,0.00046243077097981016,0.9971927956180504
2.56,0.49860169870780074,0.00046090308992612886,0.9972020240818151
2.57,0.49860629251781924,0.0004593810018489739,0.9972112216893263
2.58,0.4986108711623294,0.0004578644510137284,0.9972203885773785
2.59,0.4986154346961723,0.00045635338429435545,0.9972295248800157
2.6,0.4986199831736824,0.0004548477510103619,0.9972386307287194
2.61,0.49862451664871005,0.0004533475027660603,0.9972477062524723
2.62,0.49862903517464313,0.00045185259330853797,0.9972567515779832
2.63,0.49863353880442707,0.0004503629783946636,0.9972657668298129
2.64,0.4986380275905837,0.0004488786156598698,0.9972747521304259
2.65,0.49864250158522866,0.000447399464498138,0.997283707600333
2.66,0.49864696084008825,0.00044592548595730446,0.9972926333582739
2.67,0.49865140540651454,0.00044445664262721644,0.9973015295211735
2.68,0.4986558353355,0.00044299289854965977,0.9973103962043849
2.69,0.49866025067769126,0.0004415342191247226,0.9973192335216782
2.7,0.49866465148340144,0.0004400805710188357,0.9973280415852799
2.71,0.49866903780262245,0.00043863192210061264,0.9973368205061716
2.72,0.498673409685036,0.0004371882413522762,0.9973455703938666
2.73,0.49867776718002405,0.00043574949880760793,0.9973542913566928
2.74,0.4986821103366789,0.0004343156654872889,0.9973629835017853
2.75,0.4986864392038122,0.00043288671333056546,0.997371646935065
2.7600000000000002,0.4986907538299637,0.0004314626151482089,0.9973802817614674
2.77,0.4986950542634093,0.00043004334456434,0.9973888880848462
2.7800000000000002,0.49869934055216897,0.00042862887596550295,0.9973974660080585
2.79,0.49870361274401354,0.00042721918445599,0.9974060156330411
2.8000000000000003,0.49870787088647167,0.00042581424581525335,0.9974145370608425
2.81,0.49871211502683627,0.00042441403645856996,0.9974230303916672
2.82,0.4987163452121702,0.00042301853339061195,0.9974314957248159
2.83,0.498720561489312,0.0004216277141821209,0.997439933158925
2.84,0.49872476390488124,0.00042024155692765267,0.9974483427917884
2.85,0.49872895250528343,0.000418860040216856,0.9974567247205008
2.86,0.49873312733671443,0.00041748314310306424,0.9974650790414398
2.87,0.4987372884451653,0.0004161108450877634,0.997473405850431
2.88,0.49874143587642605,0.00041474312607518406,0.9974817052424592
2.89,0.4987455696760897,0.0004133799663641077,0.9974899773120451
2.9,0.4987496898895559,0.00041202134662353087,0.9974982221530918
2.91,0.49875379656203456,0.00041066724786358835,0.9975064398588436
2.92,0.49875788973854884,0.0004093176514259275,0.9975146305220857
2.93,0.4987619694639384,0.0004079725389565522,0.9975227942349753
2.94,0.4987660357828624,0.00040663189239922815,0.9975309310892514
2.95,0.49877008873980205,0.00040529569396957035,0.9975390411760482
2.96,0.4987741283790635,0.0004039639261419311,0.9975471245860262
2.97,0.4987781547447799,0.0004026365716381205,0.9975551814093959
2.98,0.49878216788091406,0.0004013136134186132,0.9975632117359466
