time,theta,theta_dot,tau
0.0,0.002,0.2,2
0.01,0.0058980000000000005,0.3898,2
0.02,0.011595202,0.5697202,2
0.03,0.018995948698,0.7400746698,2
0.04,0.028007662112402,0.9011713414402001,2
0.05,0.0385407821939715,1.0533120081569498,2
0.06,0.05050870548926856,1.1967923295297052,2
0.07,0.06382772391431149,1.331901842504293,2
0.08,0.07841696369418796,1.4589239779876473,2
0.09,0.09419832452137643,1.5781360827188462,2
0.1,0.11109641898268409,1.6898094461307662,2
0.11,0.1290385123019437,1.7942093319259595,2
0.12,0.14795446244293836,1.8915950140994673,2
0.13,0.16750204380001976,1.9547581357081405,1.7253831855794033
0.14,0.18676113397789068,1.925909017787091,0.8563899324435944
0.15,0.20532469521620508,1.8563561238314394,0.45418670331492095
0.16,0.22302926556380967,1.770457034760458,0.27451186642211134
0.17,0.23982614540326275,1.6796879839453085,0.20056727479254377
0.18,0.25571987862448425,1.5893733221221507,0.17652351914433773
0.19,0.27073891814978124,1.501903952529699,0.175712843761044
0.2,0.284921681394813,1.4182763245031778,0.1854146141494173
0.21,0.29830996248499,1.3388281090176972,0.19957768879159588
0.22,0.3109458588954383,1.263589641044831,0.21533933726517773
0.23,0.32287037482539527,1.192451592995697,0.23136019892651216
0.24,0.33412282250781994,1.1252447682424664,0.24702792379093985
0.25,0.34474060131844914,1.0617778810629177,0.2620763348335666
0.26,0.354759153933509,1.0018552615059853,0.27640334628058305
0.27,0.36421200371410245,0.9452849780593462,0.2899839502201109
0.28,0.37313082767561623,0.8918823961513777,0.3028286736640897
0.29,0.38154554339296964,0.8414715717353429,0.31496378159095784
0.3,0.38948439965887366,0.7938856265904027,0.32642187781123866
0.31,0.39697406618741654,0.7489666528542884,0.33723747559293216
0.32,0.40403972026514334,0.7065654077726794,0.34744494179847063
0.33,0.41070512949156684,0.6665409226423503,0.35707757284819186
0.34,0.4169927303359356,0.6287600844368741,0.3661672087579797
0.35000000000000003,0.42292370250917066,0.5930972173235071,0.3747441014207018
0.36,0.4285180392727744,0.5594336763603717,0.3828369015395703
0.37,0.433794613858445,0.5276574585670616,0.39047269951985975
0.38,0.43877124219050406,0.4976628332059093,0.3976770895304531
0.39,0.44346474210592507,0.46934999154210233,0.40447424215538863
0.4,0.44789098926227033,0.4426247156345252,0.41088697880120506
0.41000000000000003,0.45206496991625855,0.41739806539882107,0.4169368447224917
0.42,0.4560008307469208,0.3935860830662284,0.4226441792897422
0.43,0.4597119258882612,0.37110951413404025,0.4280281829581536
0.44,0.4632108613274364,0.34989354391751837,0.4331069807900625
0.45,0.46650953681589,0.3298675488453654,0.4378976825646659
0.46,0.4696191854326953,0.31096486168053183,0.4424164395902368
0.47000000000000003,0.47255041093159467,0.2931225498899338,0.4466784983669809
0.48,0.47531322299587725,0.27628120642825904,0.4506982512598141
0.49,0.47791707051828997,0.2603847522412715,0.45448928434013136
0.5,0.48037087301661463,0.24538024983246434,0.4580644225508541
0.51,0.4826830502893499,0.23121772727352755,0.46143577234347877
0.52,0.4848615504100862,0.21785001207363555,0.46461476192719364
0.53,0.48691387615363924,0.20523257435530023,0.4676121792635508
0.54,0.4888471099417942,0.19332337881549688,0.47043820793325586
0.55,0.4906679373915931,0.18208274497988808,0.47310246099345465
0.56,0.4923826695444488,0.17147321528557097,0.4756140129383659
0.5700000000000001,0.4939972638499871,0.16145943055383072,0.4779814298698317
0.58,0.4955173439743759,0.15200801243888085,0.4802127979774038
0.59,0.49694821849899395,0.1430874524618031,0.48231575042303887
0.6,0.4982948985716021,0.13466800726081188,0.48429749271998324
0.61,0.49956211456869776,0.12672159970956456,0.48616482668953487
0.62,0.500754331824446,0.11922172557481898,0.4879241730760242
0.63,0.5018757654784771,0.11214336540312063,0.4895815928948719
0.64,0.5029303944919129,0.1054629013435772,0.49114280758460316
0.65,0.503921974878215,0.09915803863021021,0.49261321803003155
0.66,0.5048540521928437,0.09320773146287732,0.4939979225199913
0.67,0.5057299733232468,0.08759211304030105,0.4953017336985197
0.68,0.5065528976183733,0.08229242951265774,0.4965291945669641
0.6900000000000001,0.5073258073947148,0.07729097763414491,0.49768459358957395
0.7000000000000001,0.5080515178537969,0.07257104590820489,0.498771978952387
0.71,0.5087326864440953,0.06811685902983858,0.4997951720242362
0.72,0.5093718216984974,0.06391352544020776,0.5007577800627063
0.73,0.5099712915766899,0.059946987819245234,0.501663208208976
0.74,0.5105333313402063,0.05620397635164653,0.5025146708103254
0.75,0.5110600509863156,0.05267196461092731,0.5033152021088374
0.76,0.5115534422654636,0.04933912791479936,0.5040676663304997
0.77,0.5120153853055989,0.04619430401352616,0.5047747672101313
0.78,0.5124476548654037,0.0432269559804813,0.5054390569819134
0.79,0.5128519262372193,0.04042713718156226,0.506062944866454
0.8,0.5132297808192898,0.03778545820704616,0.5066487050828394
0.81,0.5135827113758489,0.035293055655900955,0.5071984844113608
0.8200000000000001,0.5139121270025369,0.03294156266879463,0.5077143093327361
0.8300000000000001,0.5142193578136552,0.030723081111839093,0.5081980927673788
0.84,0.5145056593668413,0.028630155318607402,0.5086516404372579
0.85,0.5147722168398724,0.026655747303106457,0.5090766568711356
0.86,0.5150201489734858,0.024793213361337434,0.5094747510737354
0.87,0.5152505117933218,0.0230362819836032,0.5098474418768122
0.88,0.5154643021233638,0.02137903300420022,0.5101961629910936
0.89,0.5156624609025549,0.019815877919105145,0.5105222677745131
0.9,0.5158458763156178,0.018341541306293844,0.5108270337339944
0.91,0.5160153867484866,0.01695104328687446,0.511111666774571
0.92,0.5161717835781742,0.01563968296876154,0.5113773052107946
0.93,0.5163158138063522,0.014403022817797212,0.5116250235529116
0.9400000000000001,0.5164481825453966,0.013236873904446094,0.5118558360817396
0.9500000000000001,0.5165695553651661,0.012137281976948982,0.5120707002226486
0.96,0.5166805605083125,0.011100514314634118,0.512270519730492
0.97,0.51678179098149,0.010123047317758909,0.5124561476968774
0.98,0.5168738065294151,0.009201554792500372,0.5126283893877841
0.99,0.5169571354983378,0.00833289689226902,0.5127880049233517
1.0,0.517032276595123,0.007514109678521758,0.5129357118069997
1.01,0.5170997005477865,0.0067423952663526136,0.5130721873126924
1.02,0.5171598516730079,0.006015112522138083,0.5131980707388175
1.03,0.5172131493558312,0.005329768282326514,0.5133139655359613
1.04,0.5172599894464722,0.004684009064102474,0.5134204413147541
1.05,0.5173007455788767,0.004075613240448079,0.5135180357419795
1.06,0.5173357704154123,0.0035024836535604347,0.5136072563302243
1.07,0.5173653968218328,0.002962640642047338,0.5136885821270616
1.08,0.5173899389764203,0.002454215458745918,0.5137624653098423
1.09,0.517409693416993,0.001975444057273585,0.5138293326910699
1.1,0.5174249400292597,0.0015246612266636324,0.5138895871395304
1.11,0.5174359429798054,0.0011002950545745689,0.5139436089217009
1.12,0.5174429515968119,0.0007008617006401491,0.5139917569677486
1.1300000000000001,0.5174462012014387,0.0003249604626829389,0.5140343700675598
1.1400000000000001,0.5174459138926312,-2.8730880754506685e-05,0.5140717679984057
1.1500000000000001,0.5174422992879619,-0.00036146046692537236,0.5141042525905453
1.16,0.5174355552229709,-0.0006744064991065662,0.5141321087326873
1.17,0.5174258684113274,-0.0009686811643476894,0.5141556053210063
1.18,0.5174134150680102,-0.001245334331721864,0.5141749961554118
1.19,0.5173983614975758,-0.0015053570434366,0.5141905207850019
1.2,0.5173808646494724,-0.0017496848103357994,0.5142024053068655
1.21,0.5173610726422443,-0.0019792007228162374,0.5142108631195002
1.22,0.5173391252583698,-0.002194738387450173,0.5142160956344968
1.23,0.5173151544113788,-0.0023970846991059054,0.5142182929480874
1.24,0.5172892845868008,-0.0025869824577951224,0.5142176344749336
1.25,0.517261633258412,-0.002765132838878375,0.5142142895470707
1.26,0.5172323112811625,-0.0029321977249461223,0.5142084179782953
1.27,0.5172014232620924,-0.003088801907013899,0.5142001705980117
1.28,0.5171690679104679,-0.003235535162448449,0.51418968975424
1.29,0.5171353383683033,-0.0033729542164625363,0.5141771097891028
1.3,0.5171003225223658,-0.003501584593741707,0.5141625574872803
1.31,0.5170641032987024,-0.0036219223663330018,0.5141461524995821
1.32,0.5170267589406662,-0.0037344358036297256,0.5141280077425687
1.33,0.5169883632713671,-0.0038395669299112582,0.514108229776036
1.34,0.5169489859414209,-0.003937732994624071,0.5140869191592834
1.35,0.5169086926628177,-0.004029327860327086,0.5140641707870788
1.36,0.5168675454296892,-0.004114723312851536,0.5140400742074096
1.37,0.5168256027267083,-0.0041942702980824415,0.5140147139209543
1.3800000000000001,0.5167829197258137,-0.0042683000894621565,0.51398816966387
1.3900000000000001,0.516739548471913,-0.004337125390070323,0.513960516675001
1.4000000000000001,0.5166955380581832,-0.004401041372967767,0.5139318259479033
1.41,0.5166509347915503,-0.004460326663292474,0.5139021644684523
1.42,0.5166057823488974,-0.004515244265293699,0.5138715954398918
1.43,0.5165601219245228,-0.0045660424374601985,0.5138401784945856
1.44,0.5165139923693367,-0.004612955518618016,0.5138079698942145
1.45,0.5164674303222592,-0.004656204707757765,0.5137750227186302
1.46,0.5164204703342576,-0.004695998800152184,0.5137413870444361
1.47,0.516373144985435,-0.0047325348822651984,0.5137071101130514
1.48,0.5163254849955577,-0.004765998987718961,0.5136722364897648
1.49,0.5162775193283926,-0.004796566716509581,0.5136368082137921
1.5,0.5162292752901972,-0.004824403819536343,0.5136008649398702
1.51,0.5161807786226933,-0.004849666750396769,0.5135644440718248
1.52,0.5161320535908308,-0.004872503186249671,0.5135275808889659
1.53,0.5160831230656356,-0.00489305251951782,0.5134903086650244
1.54,0.5160340086024152,-0.004911446322039731,0.5134526587806576
1.55,0.515984730514583,-0.004927808783213622,0.5134146608296565
1.56,0.515935307943347,-0.0049422571236074795,0.5133763427190376
1.57,0.5158857589234931,-0.0049549019853878775,0.5133377307637392
1.58,0.5158361004454843,-0.004965847800877238,0.5132988497759056
1.59,0.5157863485140796,-0.00497519314047618,0.5132597231490563
1.6,0.5157365182036687,-0.004983031041080083,0.5132203729378024
1.61,0.5156866237105076,-0.00498944931611372,0.5131808199327923
1.62,0.5156366784020258,-0.004994530848184281,0.513141083731745
1.6300000000000001,0.5155866948633723,-0.004998353865347122,0.5131011828063052
1.6400000000000001,0.5155366849413535,-0.005000992201874982,0.5130611345654201
1.6500000000000001,0.5154866597859088,-0.005002515544468317,0.5130209554144827
1.6600000000000001,0.5154366298892626,-0.005002989664614171,0.512980660812216
1.67,0.5153866051228829,-0.005002476637970715,0.5129402653233901
1.68,0.5153365947723686,-0.005001035051432817,0.5128997826692765
1.69,0.5152866075703824,-0.004998720198620593,0.5128592257747744
1.7,0.5152366517277384,-0.0049955842644001935,0.5128186068132761
1.71,0.5151867349627475,-0.004991676499083502,0.5127779372487051
1.72,0.515136864528919,-0.004987043382844041,0.5127372278756003
1.73,0.5150870472411094,-0.004981728780960742,0.51269648885633
1.74,0.5150372895002063,-0.004975774090313295,0.5126557297571035
1.75,0.5149875973164291,-0.004969218377726508,0.5126149595809175
1.76,0.5149379763313239,-0.0049620985105157936,0.5125741867996729
1.77,0.5148884318385263,-0.004954449279756217,0.5125334193836617
1.78,0.51483896880336,-0.004946303516627309,0.5124926648299373
1.79,0.5147895918813377,-0.004937692202238302,0.5124519301889364
1.8,0.5147403054356245,-0.004928644571310319,0.5124112220894983
1.81,0.5146911135535241,-0.004919188210035445,0.5123705467627181
1.82,0.5146420200620393,-0.004909349148484225,0.5123299100640186
1.83,0.5145930285425613,-0.004899151947805107,0.5122893174945884
1.84,0.5145441423447358,-0.004888619782545638,0.5122487742212534
1.85,0.5144953645995521,-0.004877774518362958,0.5122082850952897
1.86,0.5144466982316981,-0.004866636785409021,0.51216785466991
1.87,0.5143981459712226,-0.004855226047551257,0.5121274872175712
1.8800000000000001,0.514349710364545,-0.0048435606677518376,0.5120871867454412
1.8900000000000001,0.5143013937848472,-0.004831657969785145,0.512046957010336
1.9000000000000001,0.5142531984418823,-0.004819534296487808,0.512006801532928
1.9100000000000001,0.5142051263912351,-0.004807205064732426,0.5119667236111922
1.92,0.5141571795430616,-0.004794684817349496,0.5119267263326981
1.93,0.5141093596703404,-0.004781987272120317,0.5118868125866787
1.94,0.5140616684166601,-0.0047691253680335255,0.5118469850751481
1.95,0.5140141073035706,-0.004756111308951819,0.5118072463234604
1.96,0.5139666777375224,-0.004742956604819651,0.5117675986904163
1.97,0.5139193810164164,-0.0047296721105884705,0.5117280443774244
1.98,0.5138722183357872,-0.004716268062918075,0.5116885854378261
1.99,0.5138251907946385,-0.004702754114874434,0.5116492237847646
2.0,0.5137782994009521,-0.004689139368643095,0.5116099611995146
2.0100000000000002,0.5137315450768879,-0.004675432406420181,0.5115707993388597
2.02,0.513684928663692,-0.004661641319588665,0.511531739741993
2.0300000000000002,0.5136384509263295,-0.004647773736242326,0.5114927838373611
2.04,0.5135921125578577,-0.004633836847177201,0.5114539329488597
2.05,0.5135459141835537,-0.00461983743041388,0.5114151883019024
2.06,0.51349985636481,-0.004605781874366737,0.5113765510288182
2.07,0.5134539396028132,-0.0045916761996852955,0.511338022174441
2.08,0.513408164342014,-0.004577526079917798,0.5112996027006455
2.09,0.5133625309734043,-0.004563336860963746,0.5112612934915955
2.1,0.5133170398376096,-0.004549113579479264,0.5112230953577673
2.11,0.5132716912278074,-0.004534860980224259,0.51118500904042
2.12,0.5132264853924828,-0.004520583532451422,0.5111470352154236
2.13,0.5131814225380291,-0.0045062854453702785,0.5111091744970686
2.14,0.5131365028312015,-0.004491970682757446,0.5110714274414723
2.15,0.5130917264014342,-0.004477642976725921,0.511033794550138
2.16,0.5130470933430267,-0.00446330584074805,0.5109962762728499
2.17,0.5130026037172074,-0.004448962581925259,0.5109588730108806
2.18,0.5129582575540815,-0.0044346163125884965,0.5109215851196124
2.19,0.5129140548544692,-0.00442026996123876,0.5108844129112846
2.2,0.5128699955916404,-0.004405926282878553,0.5108473566574518
2.21,0.5128260797129528,-0.004391587868761565,0.5108104165913709
2.22,0.5127823071413967,-0.004377257155609831,0.5107735929100894
2.23,0.512738677777054,-0.004362936434280556,0.5107368857768846
2.24,0.5126951914984741,-0.0043486278579912,0.5107002953228073
2.25,0.5126518481639736,-0.004334333450048716,0.5106638216489033
2.2600000000000002,0.512608647612862,-0.004320055111159055,0.5106274648278458
2.27,0.5125655896665986,-0.0043057946263409695,0.5105912249054633
2.2800000000000002,0.5125226741298843,-0.004291553671426534,0.5105551019025725
2.29,0.5124799007916924,-0.00427733381919439,0.5105190958164925
2.3000000000000003,0.5124372694262402,-0.004263136545215912,0.51048320662188
2.31,0.5123947797939074,-0.004248963233286502,0.5104474342729264
2.32,0.5123524316421011,-0.004234815180622737,0.5104117787039018
2.33,0.5123102247060737,-0.004220693602745157,0.5103762398305656
2.34,0.5122681587096929,-0.004206599638079627,0.5103408175513564
2.35,0.5122262333661699,-0.0041925343522948464,0.5103055117485009
2.36,0.5121844483787455,-0.004178498742430009,0.5102703222886709
2.37,0.5121428034413379,-0.004164493740761982,0.5102352490242108
2.38,0.5121012982391533,-0.004150520218461734,0.5102002917939594
2.39,0.5120599324492628,-0.0041365789890487285,0.5101654504240525
2.4,0.5120187057411464,-0.0041226708116462955,0.5101307247287629
2.41,0.5119776177772057,-0.0041087963940637465,0.5100961145111488
2.42,0.5119366682132487,-0.004094956395707134,0.51006161956374
2.43,0.5118958566989456,-0.004081151430313185,0.5100272396693346
2.44,0.5118551828782602,-0.004067382068535214,0.5099929746015687
2.45,0.5118146463898563,-0.004053648840390506,0.5099588241254396
2.46,0.5117742468674805,-0.0040399522375769775,0.5099247879977963
2.47,0.5117339839403243,-0.004026292715617769,0.5098908659682841
2.48,0.5116938572333648,-0.00401267069595454,0.5098570577791477
2.49,0.5116538663676862,-0.003999086567867532,0.5098233631662576
2.5,0.5116140109607832,-0.003985540690302497,0.5097897818594027
2.5100000000000002,0.5115742906268471,-0.003972033393606338,0.5097563135825935
2.52,0.5115347049770356,-0.003958564981157758,0.5097229580545297
2.5300000000000002,0.5114952536197265,-0.003945135730912169,0.5096897149889126
2.54,0.511455936160758,-0.003931745896840516,0.5096565840949869
2.5500000000000003,0.5114167522036549,-0.00391839571030968,0.5096235650776462
2.56,0.5113777013498411,-0.003905085381389278,0.5095906576377041
2.57,0.5113387831988405,-0.0038918151000543687,0.5095578614724955
2.58,0.5112999973484671,-0.003878585037337595,0.509525176275981
2.59,0.5112613433950027,-0.003865395346439743,0.5094926017387769
2.6,0.5112228209333652,-0.003852246163750345,0.5094601375486768
2.61,0.5111844295572673,-0.003839137609796423,0.5094277833910293
2.62,0.5111461688593655,-0.003826069790185921,0.5093955389484741
2.63,0.5111080384314008,-0.003813042796461658,0.5093634039015151
2.64,0.5110700378643318,-0.0038000567069057913,0.5093313779287287
2.65,0.5110321667484584,-0.0037871115873366282,0.5092994607065705
2.66,0.5109944246735404,-0.003774207491805587,0.5092676519101005
2.67,0.5109568112289073,-0.003761344463308908,0.5092359512126043
2.68,0.5109193260035633,-0.003748522534412652,0.5092043582862155
2.69,0.5108819685862844,-0.0037357417278783894,0.5091728728016995
2.7,0.5108447385657121,-0.003723002057231401,0.5091414944288151
2.71,0.5108076355304388,-0.00371030352732556,0.5091102228361548
2.72,0.5107706590690906,-0.0036976461348249565,0.5090790576917821
2.73,0.5107338087704034,-0.003685029868711071,0.5090479986628169
2.74,0.5106970842232961,-0.003672454710731527,0.5090170454158434
2.75,0.5106604850169376,-0.003659920635841924,0.5089861976168263
2.7600000000000002,0.5106240107408117,-0.003647427612599525,0.5089554549314407
2.77,0.510587660984776,-0.003634975603561492,0.5089248170248922
2.7800000000000002,0.5105514353391197,-0.0036225645656302215,0.508894283562308
2.79,0.5105153333946155,-0.003610194450417498,0.5088638542084318
2.8000000000000003,0.51047935474257,-0.0035978652045535026,0.5088335286280468
2.81,0.51044349897487,-0.0035855767700016254,0.5088033064858121
2.82,0.5104077656840267,-0.003573329084329752,0.5087731874465878
2.83,0.5103721544632166,-0.0035611220810059688,0.5087431711750996
2.84,0.5103366649063203,-0.0035489556896289246,0.5087132573364841
2.85,0.5103012966079584,-0.0035368298361971697,0.5086834455958235
2.86,0.5102660491635254,-0.0035247444433108514,0.5086537356187231
2.87,0.5102309221692213,-0.0035126994304048257,0.5086241270709302
2.88,0.5101959152220819,-0.0035006947139427595,0.5085946196186395
2.89,0.5101610279200056,-0.003488730207625074,0.5085652129282874
2.9,0.5101262598617802,-0.0034768058225465087,0.5085359066669788
2.91,0.5100916106471064,-0.003464921467380472,0.5085067005021673
2.92,0.510057079876621,-0.003453077048538395,0.5084775941018369
2.93,0.5100226671519178,-0.00344127247031712,0.5084485871345645
2.94,0.5099883720755672,-0.003429507635059276,0.5084196792693376
2.95,0.5099541942511346,-0.003417782443264056,0.5083908701759898
2.96,0.5099201332831974,-0.003406096793726504,0.5083621595248782
2.97,0.5098861887773608,-0.0033944505836608295,0.5083335469869908
2.98,0.5098523603402727,-0.003382843708810096,0.5083050322340378
2.99,0.5098186475796371,-0.0033712760635565774,0.5082766149384028
3.0,0.5097850501042269,-0.0033597475410182265,0.5082482947732424
3.0100000000000002,0.5097515675238955,-0.0033482580331457177,0.5082200714124429
