time,theta,theta_dot,tau
0.0,0.01,1.0,5
0.01,0.029589999999999998,1.959,5
0.02,0.057293492,2.7703492,4.463341000000002
0.03,0.0830710726096,2.5777580609600004,-0.3802391091999979
0.04,0.10743664304310849,2.436557043350848,-0.14891793954896215
0.05,0.13045090675860796,2.301426371549947,-0.1346236288127809
0.06,0.1521892624748307,2.1738355716222726,-0.1124432719490791
0.07,0.17272217695983988,2.0532914485009184,-0.09185887004490212
0.08,0.19211625687512005,1.9394079915280176,-0.07239790668440094
0.09,0.21043442804698234,1.8318171171862287,-0.05401464496578079
0.1,0.2277361402414883,1.730171219450596,-0.03664885121742678
0.11,0.24407755912317533,1.6341418881687026,-0.02024434239860362
0.12,0.2595117476737676,1.5434188550592305,-0.00474800835203304
0.13,0.2740888375864828,1.4577089912715173,0.009890325910164144
0.14,0.28785619119252015,1.3767353606037347,0.02371806370863183
0.15,0.3008585544426178,1.3002363250097648,0.036779989747158126
0.16,0.31313820143780857,1.2279646995190805,0.0491184147698398
0.17,0.3247350709762014,1.1596869538392864,0.06077331222375015
0.18,0.335686895556829,1.0951824580627594,0.07178244737332307
0.19,0.3460293232572375,1.0342427700408523,0.0821814992814307
0.2,0.35579603287847844,0.9766709621240955,0.09200417605300526
0.21,0.3650188427294147,0.9222809850936261,0.10128232371171109
0.22,0.37372781340171013,0.8708970672295427,0.11004602906301564
0.23,0.38195134486746085,0.8223531465750705,0.11832371687440268
0.24,0.389716268213089,0.7764923345628187,0.12614224168748578
0.25,0.3970479323057962,0.7331664092707184,0.13352697455860651
0.26,0.4039702856725039,0.6922353366707704,0.14050188500730165
0.27,0.41050595385574795,0.6535668183244011,0.14708961843855928
0.28,0.4166763124963815,0.6170358640633516,0.1533115692875069
0.29,0.4225015563791415,0.5825243882760012,0.1591879501241089
0.3,0.42800076466409226,0.5499208284950781,0.1647378569401554
0.31,0.4331919625146406,0.5191197850548352,0.16997933082984762
0.32,0.43809217932117867,0.4900216806538073,0.17492941626314762
0.33,0.44271750370841406,0.46253243872354105,0.17960421614001953
0.34,0.44708313550405854,0.4365631795644486,0.18401894380345318
0.35000000000000003,0.45120343483673153,0.4120299332672996,0.1881879721791737
0.36,0.455091968521663,0.3888533684931447,0.19212488020105134
0.37,0.45876155388401896,0.366958536235593,0.19584249667170184
0.38,0.4622243001613974,0.34627462773784345,0.19935294170038054
0.39,0.46549164761922257,0.3267347457825216,0.20266766585165796
0.4,0.46857440450537874,0.30827568861561605,0.20579748713158796
0.41000000000000003,0.471482781963445,0.2908377458066295,0.20875262593087984
0.42,0.4742264270173002,0.27436450538551926,0.211542738037497
0.43,0.4768144537336352,0.258802671633496,0.21417694582563773
0.44,0.4792554726630278,0.24410189293926354,0.21666386772235446
0.45,0.48155761865467256,0.23021459916447687,0.21901164604543322
0.46,0.483728577134606,0.21709584799334442,0.22122797330456945
0.47000000000000003,0.48577560893230504,0.20470317976990296,0.22332011704876464
0.48,0.4877055737358473,0.1929964803542265,0.22529494334175082
0.49,0.4895249522513926,0.18193785155453368,0.2271589389403048
0.5,0.49123986713855927,0.17149148871666708,0.22891823224727004
0.51,0.4928561027893162,0.16162356507568978,0.23057861310772654
0.52,0.4943791240142754,0.1523021224959252,0.23214555151097316
0.53,0.49581409369674123,0.14349696824658267,0.23362421525961008
0.54,0.497165889471537,0.13517957747957923,0.23501948666266992
0.55,0.49843911948248276,0.1273230010945752,0.2363359783066642
0.56,0.4996381372694183,0.11990177869355391,0.23757804795505
0.5700000000000001,0.5007670558328573,0.11289185634390005,0.2387498126251506
0.58,0.5018297609216998,0.10627050888425175,0.2398551618869672
0.59,0.5028299235869225,0.10001626652226138,0.2408977704277484
0.6,0.503771012041794,0.09410884548714572,0.24188110992233525
0.61,0.5046563028669239,0.0885290825129944,0.24280846024756952
0.62,0.5054888915963373,0.08325887294133996,0.24368292007778858
0.63,0.5062717027187658,0.07828111224285389,0.24450741689400624
0.64,0.5070074991264618,0.07357964076960602,0.24528471644171435
0.65,0.5076988910420523,0.0691391915590581,0.24601743166441248
0.66,0.5083483444522677,0.06494534102154088,0.24670803114525175
0.67,0.5089581890757845,0.06098446235168014,0.2473588470811383
0.68,0.5095306258909196,0.0572436815135078,0.2479720828173666
0.6900000000000001,0.5100677342474884,0.05371083565688842,0.24854981996506442
0.7000000000000001,0.5105714785857998,0.050374433831138286,0.24909402512637124
0.71,0.5110437147844873,0.04722361986875159,0.24960655624719408
0.72,0.5114861961576829,0.04424813731955932,0.2500891686200326
0.73,0.5119005791209017,0.041438296321882624,0.2505435205543698
0.74,0.5122884285439391,0.0387849423037352,0.25097117873409025
0.75,0.5126512228080696,0.03627942641305193,0.25137362327930024
0.76,0.5129903585838829,0.033913577581321054,0.2517522525279908
0.77,0.5133071553451873,0.031679676130452326,0.252108387553862
0.78,0.5136028596335637,0.029570428837633847,0.25244327643459175
0.79,0.5138786490873394,0.02757894537757536,0.2527580982840162
0.8,0.5141356362480014,0.02569871606620265,0.2530539670623212
0.81,0.5143748721563379,0.023923590833654897,0.2533319351745025
0.8200000000000001,0.5145973497499278,0.022247759358979935,0.25359299687152514
0.8300000000000001,0.5148040070729484,0.020665732302063262,0.2538380914621765
0.84,0.514995730308673,0.019172323572461937,0.2540681063488802
0.85,0.5151733566444485,0.01776263357755381,0.25428387989428825
0.86,0.5153376769784108,0.016432033396224434,0.25448620413108813
0.87,0.5154894384766782,0.015176149826736242,0.25467582732100935
0.88,0.5156293469892838,0.01399085126055857,0.254853456372798
0.89,0.515758069332649,0.012872234336523571,0.2550197591265786
0.9,0.515876235445972,0.01181661133230302,0.2551753665125265
0.91,0.5159844404284949,0.010820498252281487,0.25532087458933894
0.92,0.5160832464642301,0.009880603573522285,0.2554568464709077
0.93,0.5161731846403642,0.008993817613408341,0.25558381414624975
0.9400000000000001,0.51625475666521,0.008157202484581606,0.2557022801987301
0.9500000000000001,0.5163284364912588,0.007367982604873926,0.25581271943098294
0.96,0.5163946718485721,0.006623535731336207,0.2559155803989156
0.97,0.5164538856934692,0.005921384489703553,0.25601128686239005
0.98,0.5165064775771854,0.00525918837162206,0.25610023915426783
0.99,0.5165528249389267,0.004634736174135447,0.25618281547548405
1.0,0.5165932843274931,0.004045938856631516,0.2562593731167708
1.01,0.5166281925554184,0.003490822792525496,0.25633024961454276
1.02,0.5166578677893547,0.002967523393635975,0.25639576384176666
1.03,0.5166826105802227,0.002474279086794297,0.2564562170391962
1.04,0.5167027048364544,0.0020094256231701925,0.2565118937893497
1.05,0.5167184187434741,0.0015713907019704444,0.2565630629368625
1.06,0.5167300056323855,0.001158688891130856,0.2566099784579332
1.07,0.516737704800671,0.0007699168285548077,0.25665288028153865
1.08,0.5167417422875561,0.00040374868850248235,0.2566919950657849
1.09,0.5167423316065397,5.8931898355886394e-05,0.25672753693074557
1.1,0.5167396744374599,-0.0002657169079724562,0.25675970815129934
1.11,0.5167339612803292,-0.0005713157130723055,0.2567886998116362
1.12,0.5167253720730494,-0.0008589207279825693,0.2568146924229988
1.1300000000000001,0.516714076775005,-0.0011295298044354794,0.25683785650866364
1.1400000000000001,0.5167002359184169,-0.0013840856588128822,0.2568583531547284
1.1500000000000001,0.5166840011292387,-0.0016234789178113927,0.2568763345324533
1.16,0.5166655156192782,-0.0018485509960543087,0.25689194438984253
1.17,0.5166449146511327,-0.0020600968145523244,0.2569053185179382
1.18,0.5166223259774412,-0.002258867369149663,0.2569165851896692
1.19,0.5165978702558713,-0.002445572156988872,0.25692586557569463
1.2,0.516571661441181,-0.002620881469025803,0.25693327413635325
1.21,0.5165438071556235,-0.002785428555749235,0.25693891899316823
1.22,0.5165144090388886,-0.002939811673492475,0.2569429022779457
1.23,0.5164835630787138,-0.0030845960174751483,0.2569453204648324
1.24,0.5164513599232315,-0.00322031554822607,0.25694626468210724
1.25,0.5164178851760614,-0.0033474747170227125,0.25694582100798735
1.26,0.5163832196751008,-0.0034665500960559524,0.2569440707494599
1.27,0.5163474397559155,-0.0035779919185358043,0.25694109070593996
1.28,0.5163106175005783,-0.00368222553372287,0.25693695341831524
1.29,0.5162728209727625,-0.00377965278157366,0.2569317274042906
1.3,0.5162341144398482,-0.003870653291431257,0.25692547738077853
1.31,0.5161945585827575,-0.003955585709064678,0.25691826447347077
1.32,0.5161542106942,-0.004034788855751335,0.2569101464161325
1.33,0.5161131248659643,-0.004108582823567806,0.2569011777368674
1.34,0.5160713521658649,-0.004177270009938981,0.2568914099364127
1.35,0.5160289408049129,-0.004241136095194197,0.25688089165466854
1.36,0.5159859362952521,-0.004300450966076884,0.2568696688290042
1.37,0.51594238159937,-0.004355469588216975,0.25685778484371025
1.3800000000000001,0.5158983172710656,-0.0044064328304418855,0.25684528067091705
1.3900000000000001,0.5158537815886305,-0.004453568243515981,0.25683219500407395
1.4000000000000001,0.5158088106806714,-0.0044970907959128266,0.2568185643836278
1.41,0.5157634386449826,-0.004537203568881519,0.2568044233163097
1.42,0.5157176976608511,-0.004574098413159699,0.2567898043873241
1.43,0.515671618095157,-0.004607956569401471,0.2567747383665847
1.44,0.5156252286026138,-0.004638949254317836,0.2567592543091164
1.45,0.5155785562204692,-0.004667238214457791,0.2567433796497436
1.46,0.5155316264579755,-0.004692976249378288,0.2567271402927406
1.47,0.5154844633809161,-0.004716307705935051,0.25671056069632825
1.48,0.5154370896914638,-0.004737368945230368,0.25669366395279447
1.49,0.5153895268036256,-0.004756288783827178,0.2566764718637018
1.5,0.5153417949145201,-0.004773188910543501,0.25665900501146577
1.51,0.515293913071718,-0.004788184280218021,0.2566412828267788
1.52,0.5152458992368603,-0.004801383485778697,0.256623323652012
1.53,0.5151977703457636,-0.0048128891096599884,0.2566051448018679
1.54,0.5151495423652044,-0.004822798055924958,0.256586762619625
1.55,0.5151012303465647,-0.0048312018639684465,0.2565681925311998
1.56,0.5150528484765159,-0.004838187004881331,0.25654944909592425
1.57,0.5150044101249012,-0.004843835161468777,0.25653054605434444
1.58,0.5149559278899726,-0.0048482234928540514,0.25651149637323045
1.59,0.5149074136411292,-0.00485142488433181,0.2564923122890267
1.6,0.5148588785592937,-0.004853508183554576,0.25647300534758444
1.61,0.514810333175058,-0.004854538423575403,0.2564535864428318
1.62,0.5147617874047216,-0.004854577033643213,0.25643406585247486
1.6300000000000001,0.5147132505843388,-0.004853682038279892,0.2564144532724487
1.6400000000000001,0.5146647315018843,-0.00485190824544983,0.2563947578486637
1.6500000000000001,0.514616238427642,-0.004849307424221869,0.256374988207992
1.6600000000000001,0.5145677791429146,-0.004845928472743119,0.2563551524863704
1.67,0.5145193609671463,-0.004841817576829885,0.25633525835647486
1.68,0.5144709907835481,-0.0048370183598221515,0.25631531305324584
1.69,0.5144226750633059,-0.0048315720242178535,0.2562953233978311
1.7,0.5143744198884516,-0.004825517485431005,0.2562752958207436
1.71,0.5143262309734701,-0.004818891498146014,0.2562552363835645
1.72,0.514278113685713,-0.00481172877571586,0.25623515079925663
1.73,0.5142300730646828,-0.0048040621030161915,0.2562150444512117
1.74,0.5141821138402535,-0.004795922442930998,0.25619492241216413
1.75,0.5141342404498823,-0.004787339037114555,0.2561747894606228
1.76,0.5140864570548714,-0.004778339501083803,0.256154650097672
1.77,0.5140387675557309,-0.00476894991405282,0.25613450856237385
1.78,0.5139911756066919,-0.0047591949038902825,0.2561143688458676
1.79,0.513943684629419,-0.004749097727297033,0.25609423470553416
1.8,0.5138962978259631,-0.004738680345585608,0.2560741096778072
1.81,0.5138490181910002,-0.004727963496294105,0.25605399709032195
1.82,0.5138018485233921,-0.004716966760805871,0.25603390007368243
1.83,0.5137547914371092,-0.004705708628284507,0.2560138215721417
1.84,0.5137078493715491,-0.00469420655600716,0.25599376435428445
1.85,0.513661024601285,-0.004682477026407646,0.2559737310225707
1.86,0.5136143192452749,-0.004670535601010103,0.2559537240223487
1.87,0.5135677352755622,-0.00465839697126503,0.2559337456511608
1.8800000000000001,0.513521274525495,-0.004646075006719405,0.25591379806625625
1.8900000000000001,0.513474938697491,-0.004633582800404276,0.25589388329297924
1.9000000000000001,0.5134287293703731,-0.00462093271178062,0.2558740032317829
1.9100000000000001,0.5133826480063,-0.004608136407311533,0.2558541596651759
1.92,0.5133366959573122,-0.00459520489877265,0.25583435426438206
1.93,0.5132908744715179,-0.004582148579438247,0.2558145885955736
1.94,0.5132451846989349,-0.004568977258298853,0.2557948641255683
1.95,0.5131996276970112,-0.0045557001923610865,0.2557751822274965
1.96,0.5131542044358391,-0.004542326117202319,0.25575554418582724
1.97,0.5131089158030814,-0.0045288632757754825,0.2557359512016133
1.98,0.5130637626086246,-0.004515319445675522,0.25571640439688537
1.99,0.513018745588976,-0.004501701964867762,0.25569690481921603
2.0,0.5129738654114158,-0.004488017756024695,0.2556774534457298
2.0100000000000002,0.5129291226779209,-0.004474273349490195,0.25565805118717544
2.02,0.512884517928871,-0.0044604749049919476,0.25563869889155366
2.0300000000000002,0.5128400516465496,-0.004446628232144896,0.25561939734767236
2.04,0.5127957242584513,-0.004432738809823452,0.25560014728845304
2.05,0.5127515361404065,-0.004418811804488061,0.25558094939393794
2.06,0.5127074876195321,-0.004404852087438478,0.25556180429455355
2.07,0.5126635789770203,-0.004390864251176892,0.2555427125735863
2.08,0.5126198104507719,-0.0043768526248401185,0.25552367476995863
2.09,0.5125761822378839,-0.004362821288793791,0.2555046913806496
2.1,0.5125326944970001,-0.004348774088379101,0.25548576286325664
2.11,0.5124893473505306,-0.0043347146469437684,0.2554668896380009
2.12,0.5124461408867492,-0.00432064637814595,0.25544807208986564
2.13,0.5124030751617735,-0.004306572497573832,0.255429310570606
2.14,0.5123601502014368,-0.004292496033680356,0.2554106054008394
2.15,0.5123173660030547,-0.004278419838211663,0.25539195687132576
2.16,0.512274722537095,-0.004264346595956754,0.2553733652451595
2.17,0.5122322197487548,-0.004250278834029648,0.2553548307589917
2.18,0.5121898575594487,-0.004236218930612141,0.255336353624659
2.19,0.512147635868217,-0.004222169123172443,0.2553179340308004
2.2,0.5121055545530537,-0.004208131516321041,0.255299572143731
2.21,0.5120636134721622,-0.0041941080891525,0.25528126810910534
2.22,0.5120218124651397,-0.004180100702250829,0.25526302205275897
2.23,0.5119801513540978,-0.004166111104185251,0.2552448340824476
2.24,0.5119386299447194,-0.004152140937837707,0.2552267042879496
2.25,0.5118972480272577,-0.00413819174617613,0.2552086327431
2.2600000000000002,0.5118560053774789,-0.004124264977878063,0.25519061950588395
2.27,0.5118149017575538,-0.004110361992505059,0.25517266462002886
2.2800000000000002,0.5117739369168985,-0.004096484065529368,0.25515476811515436
2.29,0.5117331105929691,-0.004082632392947602,0.2551369300082522
2.3000000000000003,0.5116924225120116,-0.004068808095745676,0.25511915030390464
2.31,0.5116518723897714,-0.0040550122240273516,0.2551014289954483
2.32,0.5116114599321611,-0.004041245761030462,0.25508376606506467
2.33,0.5115711848358934,-0.004027509626765455,0.25506616148519945
2.34,0.5115310467890771,-0.004013804681619346,0.2550486152183241
2.35,0.5114910454717808,-0.004000131729626975,0.25503112721817656
2.36,0.5114511805565645,-0.003986491521635247,0.25501369742992364
2.37,0.5114114517089817,-0.003972884758271187,0.25499632579077547
2.38,0.5113718585880545,-0.003959312092727072,0.2549790122305572
2.39,0.5113324008467199,-0.00394577413345649,0.25496175667183474
2.4,0.5112930781322537,-0.003932271446626421,0.25494455903081903
2.41,0.5112538900866688,-0.003918804558494558,0.25492741921746087
2.42,0.5112148363470919,-0.0039053739576914914,0.2549103371356508
2.43,0.5111759165461195,-0.0038919800972414074,0.2548933126842581
2.44,0.5111371303121529,-0.0038786233966543104,0.25487634575654694
2.45,0.5110984772697157,-0.003865304243716514,0.2548594362414346
2.46,0.511059957039752,-0.003852022996359614,0.25484258402289905
2.47,0.5110215692399094,-0.003838779984271254,0.2548257889810459
2.48,0.5109833134848042,-0.0038255755105223803,0.2548090509918448
2.49,0.510945189386274,-0.0038124098530256637,0.2547923699277812
2.5,0.5109071965536138,-0.003799283266017525,0.25477574565757255
2.5100000000000002,0.5108693345938005,-0.0037861959813413194,0.25475917804698445
2.52,0.5108316031117031,-0.0037731482097448444,0.25474266695861436
2.5300000000000002,0.5107940017102826,-0.003760140142048626,0.2547262122523837
2.54,0.5107565299907797,-0.003747171950290481,0.25470981378552227
2.5500000000000003,0.5107191875528916,-0.003734243788815713,0.2546934714127056
2.56,0.5106819739949394,-0.0037213557952149724,0.25467718498668634
2.57,0.510644888914026,-0.0037085080913433956,0.2546609543577846
2.58,0.5106079319061839,-0.0036957007842141477,0.25464477937439056
2.59,0.510571102566516,-0.003682933966782772,0.254628659883406
2.6,0.5105344004893277,-0.0036702077188304504,0.2546125957296631
2.61,0.5104978252682508,-0.003657522107689534,0.25459658675660235
2.62,0.5104613764963616,-0.0036448771889293708,0.2545806328063883
2.63,0.5104250537662907,-0.003632273007090111,0.2545647337195912
2.64,0.5103888566703282,-0.0036197095962491733,0.254548889335932
2.65,0.5103527848005209,-0.003607186980722318,0.2545330994935485
2.66,0.5103168377487657,-0.003594705175525023,0.2545173640301025
2.67,0.5102810151068956,-0.0035822641870044553,0.2545016827818807
2.68,0.5102453164667629,-0.003569864013272336,0.2544860555847075
2.69,0.5102097414203154,-0.0035575046447472417,0.25447048227335245
2.7,0.5101742895596697,-0.0035451860645685142,0.2544549626821019
2.71,0.5101389604771794,-0.003532908249029773,0.25443949664461485
2.72,0.5101037537654993,-0.00352067116800758,0.2544240839938947
2.73,0.5100686690176462,-0.003508474785302759,0.2544087245626723
2.74,0.5100337058270557,-0.003496319059059047,0.2543934181829811
2.75,0.5099988637876351,-0.0034842039420513644,0.25437816468675445
2.7600000000000002,0.5099641424938149,-0.0034721293820212246,0.254362963905558
2.77,0.509929541540595,-0.0034600953219949574,0.2543478156706346
2.7800000000000002,0.5098950605235893,-0.00344810170056625,0.25433271981304206
2.79,0.5098606990390677,-0.0034361484521613444,0.25431767616370593
2.8000000000000003,0.5098264566839947,-0.003424235507294268,0.25430268455343696
2.81,0.5097923330560665,-0.003412362792820453,0.2542877448129076
2.82,0.5097583277537449,-0.0034005302321630875,0.254272856772756
2.83,0.5097244403762898,-0.0033887377454982354,0.2542580202637641
2.84,0.5096906705237897,-0.0033769852500150715,0.2542432351164611
2.85,0.5096570177971891,-0.003365272660064064,0.25422850116164686
2.86,0.5096234817983156,-0.0033535998873446353,0.25421381823017886
2.87,0.5095900621299048,-0.003341966841087282,0.25419918615297565
2.88,0.5095567583956224,-0.003330373428231689,0.2541846047610129
2.89,0.5095235702000871,-0.003318819553532434,0.25417007388566115
2.9,0.5094904971488895,-0.0033073051197588157,0.25415559335820515
2.91,0.5094575388486117,-0.003295830027781718,0.2541411630103785
2.92,0.5094246949068443,-0.003284394176737812,0.25412678267396904
2.93,0.509391964932203,-0.0032729974641353713,0.2541124521810868
2.94,0.5093593485343432,-0.0032616397859759863,0.2540981713640713
2.95,0.5093268453239748,-0.003250321036838674,0.2540839400556629
2.96,0.5092944549128744,-0.00323904111003703,0.25406975808862786
2.97,0.5092621769138979,-0.003227799897656422,0.25405562529633285
