time,theta,theta_dot,tau
0.0,0.002,0.2,2
0.01,0.005899,0.3899,2
0.02,0.0116001005,0.57011005,2
0.03,0.01901034592475,0.741024542475,2
0.04,0.028040573905300126,0.9030227980550125,2
0.05,0.0386052701998701,1.0564696294569969,2
0.06,0.05062242904461163,1.2017158844741536,2
0.07,0.06401341873259378,1.3390989687982153,2
0.08,0.07870285222681053,1.4689433494216748,2
0.09,0.09461846262020304,1.5915610393392505,2
0.1,0.11169098326261583,1.7072520642412778,2
0.11,0.12985403238127666,1.8163049118660832,2
0.12,0.14904400202781382,1.9189969646537153,2
0.13,0.16875527615982464,1.9711274132010823,1.5553249688144355
0.14,0.18813306792165627,1.937779176183164,0.7364589745012697
0.15,0.20680095666137926,1.8667888739722993,0.35305309994376266
0.16,0.22460933833892568,1.7808381677546419,0.17728785314026396
0.17,0.24151532526349356,1.6905986924567877,0.10032900006824264
0.18,0.25752545041549546,1.601012515200189,0.07019523629415403
0.19,0.27266837640766506,1.5142925992169574,0.06206982297552521
0.2,0.28698193669750816,1.4313560289843084,0.06411478548582039
0.21,0.30050702063879436,1.3525083941286202,0.07069263428402728
0.22,0.31328472446095684,1.27777038221625,0.07912758826000577
0.23,0.32535505879049165,1.2070334329534798,0.08815806071090115
0.24,0.3367563961454141,1.1401337354922458,0.09719727125964539
0.25,0.34752526843282133,1.0768872287407243,0.10597999830361449
0.26,0.3576963283082375,1.0171059875416177,0.11439383659570801
0.27,0.3673023856392267,0.9606057330989191,0.1223986134979409
0.28,0.37637447683806463,0.9072091198837954,0.1299879272178357
0.29,0.3849419470481862,0.8567470210121529,0.13717080964450545
0.3,0.39303253577727176,0.8090588729085599,0.1439630029942398
0.31,0.40067246163007636,0.7639925852804615,0.15038282806193148
0.32,0.407886504203881,0.7214042573804623,0.1564492444552772
0.33,0.4146980823532142,0.6811578149333176,0.16218095632072504
0.34,0.4211293285697452,0.6431246216531042,0.16759601584113248
0.35000000000000003,0.4272011594740542,0.6071830904308935,0.17271166288931727
0.36,0.4329333425293343,0.5732183055280132,0.17754427592367117
0.37,0.4383445591351125,0.5411216605778215,0.1821093745267568
0.38,0.4434524642762251,0.5107905141112604,0.18642164519085647
0.39,0.4482737429050066,0.4821278628781524,0.19049497686266248
0.4,0.4528241632307708,0.45504203257642,0.19434249987425556
0.41000000000000003,0.4571186270839183,0.42944638531475166,0.19797662528691173
0.42,0.4611712175141589,0.40525904302406107,0.20140908329242935
0.43,0.4649952437742177,0.3824026260058764,0.20465096008726302
0.44,0.46860328383238536,0.36080400581676947,0.20771273299897808
0.45,0.47200722454954475,0.3403940717159385,0.2106043038162675
0.46,0.4752182996489221,0.321107509937732,0.2133350303506767
0.47000000000000003,0.4782471255998016,0.3028825950879474,0.21591375629548093
0.48,0.48110373552979524,0.2856609929993639,0.21834883945803973
0.49,0.48379761127397247,0.26938757441772365,0.22064817844817664
0.5,0.48633771366320755,0.2540102389235059,0.2228192379036702
0.51,0.48873251114848065,0.23947974852730766,0.22486907233137443
0.52,0.49099000685255517,0.22574957040745028,0.2268043486393203
0.53,0.4931177641354308,0.21277572828756217,0.22863136743112156
0.54,0.4951229307552257,0.20051666197948845,0.23035608313075917
0.55,0.49701226170165497,0.1889330946429285,0.23198412300175786
0.56,0.4987921407750335,0.17798790733785042,0.23352080512151074
0.5700000000000001,0.5004686009797236,0.16764602046901045,0.23497115536804225
0.58,0.5020473437971629,0.1578742817439315,0.23633992347357768
0.59,0.5035337574000277,0.14864136028648423,0.23763159819607438
0.6,0.5049329338657067,0.13991764656789488,0.23885042165736237
0.61,0.5062496854440622,0.13167515783554878,0.2400004028933398
0.62,0.5074885599314379,0.1238874487375681,0.2410853306599987
0.63,0.5086538552000146,0.11652952685766815,0.24210878553550352
0.64,0.5097496329289202,0.10957777289055542,0.24307415135771415
0.65,0.5107797315809492,0.1030098652029024,0.24398462603320747
0.66,0.5117477786663388,0.09680470853895835,0.24484323175248535
0.67,0.5126572023327697,0.09094236664308601,0.24565282464392513
0.68,0.5135112423186097,0.08540399858399945,0.24641610389706226
0.6900000000000001,0.5143129603043838,0.08017179857741322,0.24713562038544223
0.7000000000000001,0.5150652496955317,0.0752289391147957,0.24781378481472327
0.71,0.5157708448676983,0.07055951721666259,0.24845287542383265
0.72,0.5164323299040855,0.06614850363871555,0.24905504526271005
0.73,0.5170521468527717,0.061981694868615544,0.2496223290704005
0.74,0.5176326035303722,0.058045667760050365,0.2501566497750418
0.75,0.5181758808969643,0.05432773665921018,0.25065982463680947
0.76,0.5186840400258319,0.050815912886758435,0.2511335710535698
0.77,0.5191590286902904,0.04749886644585018,0.25157951204721263
0.78,0.5196026875886298,0.0443658898339407,0.2519991814489755
0.79,0.5200167562270575,0.04140686384275923,0.2523940287994706
0.8,0.52040287847943,0.038612225237251115,0.25276542397982715
0.81,0.5207626078415324,0.0359729362102417,0.25311466158824647
0.8200000000000001,0.5210974123966851,0.033480455515264025,0.2534429650761103
0.8300000000000001,0.5214086795085384,0.0311267111853383,0.2537514906567173
0.84,0.5216977202560448,0.028904074750635923,0.25404133099991455
0.85,0.5219657736247704,0.026805336872564395,0.2543135187226251
0.86,0.5222140104679361,0.02482368431657352,0.2545690296887586
0.87,0.5224435372498365,0.02295267819003841,0.2548087861269037
0.88,0.5226553995835945,0.021186233375806322,0.2550336595776166
0.89,0.5228505855745506,0.01951859909560437,0.2552444736776809
0.9,0.5230300289799641,0.017944340541351248,0.25544200679254625
0.91,0.5231946121951203,0.01645832151562428,0.255626994503388
0.92,0.523345169075379,0.015055688025871742,0.2558001319578469
0.93,0.5234824876031784,0.013731852779941841,0.2559620760913264
0.9400000000000001,0.5236073124085129,0.012482480533451187,0.25611344772665356
0.9500000000000001,0.5237203471509346,0.011303474242175917,0.2562548335582293
0.96,0.5238222567706867,0.010190961975205833,0.25638678802685444
0.97,0.5239136696161579,0.009141284547116142,0.2565098350920494
0.98,0.5239951794544542,0.008150983829626585,0.2566244699067415
0.99,0.5240673473715083,0.007216791705411469,0.2567311603998892
1.0,0.5241307035677961,0.006335619628783696,0.25683034877218214
1.01,0.5241857490553956,0.0055045487599453165,0.2569224529099061
1.02,0.524232957261808,0.0047208206412335425,0.25700786772055273
1.03,0.5242727755456643,0.003981828385638592,0.25708696639557127
1.04,0.5243056266291584,0.0032851083494048975,0.2571601016033145
1.05,0.5243319099517798,0.0026283322621497855,0.2572276066167305
1.06,0.5243520029496735,0.0020092997893742417,0.25728979637920935
1.07,0.5243662622647091,0.0014259315035501322,0.2573469685112828
1.08,0.5243750248871233,0.0008762622414230761,0.257399404262859
1.09,0.5243786092353856,0.0003584348262321127,0.25744736941236357
1.1,0.524377316176734,-0.00012930586515730286,0.2574911151169147
1.11,0.5243714299916423,-0.0005886185091619309,0.2575308787157421
1.12,0.5243612192852989,-0.0010210706343492467,0.25756688448936704
1.1300000000000001,0.524346937849007,-0.0014281436291944947,0.25759934437702237
1.1400000000000001,0.5243288254742603,-0.0018112374746743762,0.2576284586551074
1.1500000000000001,0.5243071087220912,-0.0021716752169056385,0.25765441657748034
1.16,0.524282001650151,-0.0025107071940096036,0.2576773969815531
1.17,0.5242537064998432,-0.002829515030790691,0.25769756886025985
1.18,0.5242224143457042,-0.0031292154139049007,0.25771509190338415
1.19,0.5241883057091078,-0.0034108636596411773,0.2577301170085369
1.2,0.5241515511382508,-0.003675457085694383,0.25774278676420126
1.21,0.524112311756274,-0.003923938197684695,0.2577532359063751
1.22,0.5240707397792679,-0.004157197700615838,0.25776159174998325
1.23,0.5240269790058193,-0.004376077344856671,0.2577679745969177
1.24,0.5239811652796612,-0.004581372615804147,0.25777249812100655
1.25,0.5239334269269038,-0.00477383527574386,0.2577752697325314
1.26,0.523883885169243,-0.004954175766079832,0.25777639092222027
1.27,0.5238326545144675,-0.005123065477555422,0.2577759575868257
1.28,0.5237798431255095,-0.00528113889580078,0.2577740603360025
1.29,0.5237255531692201,-0.005428995628945277,0.2577707847834094
1.3,0.5236698811459815,-0.005567202323869064,0.25776621182089954
1.31,0.5236129182012098,-0.005696294477167713,0.2577604178780697
1.32,0.5235547504197438,-0.005816778146609835,0.25775347516759983
1.33,0.5234954591040579,-0.005929131568585166,0.25774545191681364
1.34,0.5234351210371913,-0.00603380668667196,0.2577364125868684
1.35,0.5233738087312289,-0.006131230596240771,0.25772641807957153
1.36,0.5233115906621322,-0.006221806909671594,0.2577155259331858
1.37,0.5232485314916663,-0.006305917046593672,0.25770379050700953
1.3800000000000001,0.5231846922771343,-0.006383921453204326,0.25769126315642976
1.3900000000000001,0.523120130669588,-0.006456160754627265,0.2576779923977356
1.4000000000000001,0.5230549011011485,-0.006522956843943877,0.2576640240643142
1.41,0.5229890549620344,-0.006584613911408143,0.25764940145395965
1.42,0.5229226407678635,-0.006641419417090193,0.2576341654684926
1.43,0.5228557043177625,-0.006693645010107107,0.25761835474521755
1.44,0.5227882888437891,-0.006741547397334223,0.25760200578155656
1.45,0.5227204351521452,-0.006785369164401766,0.25758515305255203
1.46,0.5226521817566292,-0.006825339551593506,0.2575678291219543
1.47,0.5225835650047586,-0.006861675187068205,0.25755006474777087
1.48,0.5225146191969597,-0.006894580779877728,0.25753188898074997
1.49,0.5224453766992115,-0.006924249774821378,0.25751332925910453
1.5,0.5223758680494974,-0.006950864971408648,0.25749441149632235
1.51,0.5223061220584101,-0.006974599108737944,0.25747516016575145
1.52,0.5222361659042271,-0.0069956154183074375,0.2574555983791411
1.53,0.5221660252227631,-0.0070140681463972615,0.2574357479620616
1.54,0.5220957241922851,-0.007030103047800212,0.2574156295241534
1.55,0.5220252856137612,-0.00704385785239463,0.2573952625262983
1.56,0.5219547309867002,-0.007055462706101206,0.2573746653436175
1.57,0.5218840805808241,-0.0070650405876034215,0.2573538553252773
1.58,0.5218133535038025,-0.007072707702161723,0.25733284885102736
1.59,0.5217425677652642,-0.00707857385383706,0.257311661384067
1.6,0.5216717403372921,-0.007082742797201513,0.25729030752206905
1.61,0.5216008872115944,-0.007085312569771783,0.2572688010443426
1.62,0.5215300234535327,-0.007086375806165034,0.2572471549569788
1.6300000000000001,0.5214591632531828,-0.007086020034992012,0.2572253815354141
1.6400000000000001,0.5213883199735885,-0.007084327959426122,0.25720349236475426
1.6500000000000001,0.5213175061963645,-0.007081377722396125,0.25718149837738113
1.6600000000000001,0.5212467337647929,-0.007077243157164436,0.2571594098893011
1.67,0.5211760138245513,-0.007071994024166167,0.25713723663379695
1.68,0.521105356862203,-0.0070656962348237375,0.25711498779361686
1.69,0.5210347727415723,-0.007058412063081216,0.25709267203111486
1.7,0.5209642707381194,-0.0070502003452894875,0.2570702975171628
1.71,0.5208938595714281,-0.007041116669128867,0.25704787195802115
1.72,0.5208235474359064,-0.007031213552165594,0.25702540262078233
1.73,0.520753342029801,-0.007020540610548371,0.25700289635804263
1.74,0.520683250582616,-0.007009144718498035,0.25698035963012966
1.75,0.5206132798810261,-0.0069970701589883956,0.2569577985271554
1.76,0.5205434362933644,-0.006984358766169292,0.2569352187892099
1.77,0.5204737257927647,-0.006971050059964624,0.2569126258256442
1.78,0.5204041539790321,-0.006957181373270705,0.2568900247333392
1.79,0.5203347260993104,-0.006942787972166665,0.25686742031392107
1.8,0.5202654470676153,-0.00692790316951209,0.25684481709011764
1.81,0.5201963214832921,-0.006912558432324989,0.25682221932092264
1.82,0.5201273536484597,-0.006896783483234664,0.2567996310163868
1.83,0.5200585475844959,-0.006880606396390515,0.25677705595105405
1.84,0.5199899070476152,-0.0068640536880676725,0.2567544976772811
1.85,0.519921435543592,-0.006847150402308521,0.2567319595373653
1.86,0.5198531363416732,-0.006829920191882732,0.25670944467489965
1.87,0.5197850124877257,-0.006812385394754977,0.25668695604617275
1.8800000000000001,0.5197170668166617,-0.006794567106389259,0.25666449643014255
1.8900000000000001,0.5196493019641814,-0.006776485248041368,0.25664206843861515
1.9000000000000001,0.5195817203778677,-0.006758158631365018,0.2566196745248335
1.9100000000000001,0.5195143243276739,-0.006739605019378702,0.2565973169931145
1.92,0.5194471159158321,-0.006720841184172987,0.25657499800620476
1.93,0.5193800970862185,-0.006701882961372573,0.25655271959383374
1.94,0.5193132696332019,-0.006682745301653996,0.25653048365960873
1.95,0.5192466352100078,-0.006663442319409112,0.2565082919882228
1.96,0.5191801953366202,-0.006643987338757517,0.2564861462518153
1.97,0.5191139514072503,-0.006624392936996831,0.2564640480165382
1.98,0.5190479046973933,-0.006604670985702265,0.2564419987480724
1.99,0.518982056370498,-0.006584832689529679,0.25641999981757135
2.0,0.5189164074842687,-0.006564888622926367,0.25639805250651726
2.0100000000000002,0.5188509589966207,-0.006544848764795707,0.2563761580119778
2.02,0.518785711771308,-0.006524722531275622,0.25635431745111337
2.0300000000000002,0.5187206665832409,-0.006504518806702802,0.25633253186574434
2.04,0.5186558241235122,-0.00648424597287211,0.256310802226576
2.05,0.518591185004145,-0.00646391193671244,0.25628912943691673
2.06,0.518526749762581,-0.006443524156409802,0.25626751433674266
2.07,0.5184625188659197,-0.006423089666131892,0.25624595770586467
2.08,0.5183984927149262,-0.00640261509934894,0.2562244602677234
2.09,0.518334671647817,-0.006382106710917634,0.2562030226921017
2.1,0.5182710559438378,-0.006361570397913335,0.25618164559849266
2.11,0.5182076458266441,-0.006341011719364003,0.2561603295584556
2.12,0.5181444414674957,-0.006320435914842064,0.25613907509885947
2.13,0.5180814429882749,-0.006299847922081946,0.256117882703928
2.14,0.5180186504643389,-0.006279252393596462,0.2560967528179513
2.15,0.5179560639272147,-0.006258653712420946,0.25607568584712637
2.16,0.5178936833671454,-0.006238056006933456,0.2560546821622718
2.17,0.5178315087354961,-0.006217463164923103,0.25603374210020946
2.18,0.5177695399470277,-0.006196878846842679,0.25601286596609074
2.19,0.5177077768820442,-0.006176306498349559,0.2559920540350237
2.2,0.5176462193884227,-0.0061557493621475215,0.2559713065538677
2.21,0.5175848672835307,-0.006135210489196551,0.2559506237426473
2.22,0.5175237203560379,-0.006114692749281263,0.25593000579631997
2.23,0.5174627783676276,-0.006094198841028124,0.2559094528859097
2.24,0.5174020410546142,-0.006073731301336498,0.255888965160216
2.25,0.5173415081294709,-0.006053292514333024,0.2558685427466736
2.2600000000000002,0.517281179282273,-0.0060328847197910086,0.25584818575298907
2.27,0.5172210541820619,-0.006012510021116917,0.2558278942679819
2.2800000000000002,0.517161132478133,-0.005992170392889517,0.2558076683627465
2.29,0.5171014138012532,-0.005971867687984799,0.25578750809166895
2.3000000000000003,0.5170418977648101,-0.005951603644307484,0.25576741349340737
2.31,0.5169825839658987,-0.005931379891149029,0.2557473845918359
2.32,0.5169234719863466,-0.005911197955208097,0.25572742139678417
2.33,0.516864561393684,-0.005891059266260528,0.2557075239050449
2.34,0.5168058517420585,-0.005870965162551122,0.2556876921008058
2.35,0.5167473425731001,-0.0058509168958472465,0.25566792595679244
2.36,0.5166890334167377,-0.005830915636237477,0.2556482254347241
2.37,0.516630923791971,-0.005810962476672304,0.2556285904859018
2.38,0.5165730132075984,-0.005791058437251156,0.2556090210518608
2.39,0.5165153011629059,-0.005771204469249114,0.25558951706519406
2.4,0.5164577871483162,-0.005751401458965549,0.25557007844966406
2.41,0.516400470646003,-0.005731650231324481,0.255550705121086
2.42,0.5163433511304701,-0.005711951553291316,0.2555313969876709
2.43,0.5162864280690991,-0.005692306137105801,0.2555121539504446
2.44,0.5162297009226657,-0.005672714643330179,0.25549297590375286
2.45,0.5161731691458284,-0.005653177683734156,0.255473862735628
2.46,0.5161168321875882,-0.0056336958240253135,0.25545481432813555
2.47,0.5160606894917242,-0.00561426958639663,0.2554358305580683
2.48,0.5160047404972042,-0.005594899451996365,0.25541691129666644
2.49,0.5159489846385722,-0.0055755858632004045,0.25539805641056357
2.5,0.5158934213463142,-0.005556329225799682,0.2553792657616931
2.5100000000000002,0.5158380500472037,-0.0055371299110487425,0.2553605392077667
2.52,0.5157828701646278,-0.005517988257594984,0.2553418766026151
2.5300000000000002,0.5157278811188944,-0.0054989045733290646,0.2553232777961756
2.54,0.5156730823275233,-0.005479879137111874,0.2553047426349546
2.5500000000000003,0.5156184732055192,-0.005460912200406413,0.2552862709622603
2.56,0.5155640531656309,-0.0054420039888341135,0.2552678626182794
2.57,0.5155098216185947,-0.005423154703624504,0.2552495174404945
2.58,0.5154557779733646,-0.005404364523006115,0.255231235263669
2.59,0.5154019216373296,-0.005385633603506233,0.2552130159201781
2.6,0.5153482520165176,-0.005366962081199903,0.255194859239975
2.61,0.515294768515789,-0.005348350072850514,0.2551767650511527
2.62,0.5152414705390188,-0.005329797677027268,0.2551587331797017
2.63,0.5151883574892673,-0.005311304975151535,0.2551407634497531
2.64,0.5151354287689427,-0.005292872032454996,0.25512285568402326
2.65,0.5150826837799533,-0.005274498898939936,0.25510500970339445
2.66,0.5150301219238509,-0.005256185610239675,0.25508722532750927
2.67,0.5149777426019664,-0.005237932188454595,0.2550695023746564
2.68,0.5149255452155371,-0.005219738642923264,0.2550518406620692
2.69,0.5148735291658274,-0.005201604970977489,0.2550342400057647
2.7,0.5148216938542409,-0.005183531158649077,0.2550167002207091
2.71,0.5147700386824279,-0.005165517181303006,0.2549992211212566
2.72,0.514718563052385,-0.005147563004290293,0.2549818025206896
2.73,0.5146672663665497,-0.005129668583527017,0.2549644442316801
2.74,0.5146161480278891,-0.00511183386605357,0.2549471460662458
2.75,0.5145652074399836,-0.005094058790552733,0.2549299078359262
2.7600000000000002,0.5145144440071049,-0.005076343287865007,0.2549127293515927
2.77,0.5144638571342904,-0.005058687281446242,0.2548956104238076
2.7800000000000002,0.5144134462274123,-0.0050410906878190255,0.2548785508626943
2.79,0.5143632106932424,-0.005023553416982161,0.2548615504781653
2.8000000000000003,0.5143131499395143,-0.00500607537281935,0.25484460907975826
2.81,0.5142632633749795,-0.004988656453472709,0.25482772647681384
2.82,0.5142135504094627,-0.004971296551682339,0.2548109024786571
2.83,0.5141640104539112,-0.004953995555146765,0.2547941368942459
2.84,0.5141146429204431,-0.004936753346812836,0.25477742953272153
2.85,0.5140654472223912,-0.004919569805185966,0.2547607802030838
2.86,0.514016422774345,-0.004902444804623265,0.25474418871422966
2.87,0.5139675689921893,-0.004885378215572209,0.2547276548753714
2.88,0.5139188852931409,-0.004868369904847283,0.2547111784955578
2.89,0.5138703710957824,-0.004851419735855558,0.25469475938406405
2.9,0.5138220258200942,-0.00483452756882308,0.2546783973502882
2.91,0.5137738488874841,-0.0048176932610100665,0.2546620922037657
2.92,0.513725839720815,-0.0048009166669090745,0.2546458437542469
2.93,0.5136779977444307,-0.004784197638426282,0.2546296518117809
2.94,0.5136303223841798,-0.004767536025081767,0.25461351618644734
2.95,0.5135828130674382,-0.004750931674153454,0.25459743668883217
2.96,0.5135354692231298,-0.00473438443084789,0.25458141312969806
2.97,0.5134882902817453,-0.0047178941384524685,0.2545654453200952
2.98,0.5134412756753606,-0.004701460638470641,0.25454953307146466
2.99,0.513394424837653,-0.00468508377075977,0.25453367619555367
3.0,0.5133477372039164,-0.004668763373655934,0.25451787450448493
