time,theta,theta_dot,tau
0.0,0.01,1.0,10
0.01,0.029293999999999994,1.9293999999999993,9.798999999999996
0.02,0.0522289036,2.2934903600000003,4.620250600000011
0.03,0.07614747636984,2.391857276984,2.1565288016400004
0.04,0.0998215690489909,2.36740926791509,0.9895222859878174
0.05,0.12270360370371271,2.288203465472181,0.4415573940529498
0.06,0.14456903983010203,2.1865436126389315,0.1888550062554497
0.07,0.16534565391290382,2.0776614082801794,0.07673428264699567
0.08,0.18503207678117453,1.9686422868270717,0.031312316565463405
0.09,0.20365897449774586,1.862689771657133,0.017312030104735143
0.1,0.22127059961824727,1.76116251205014,0.017901777007509168
0.11,0.2379160704443801,1.6645470826132813,0.02506226146560664
0.12,0.25364529337080555,1.572922292642543,0.03498367682144732
0.13,0.2685070989137696,1.4861805542964088,0.045866409545332054
0.14,0.2825484308552243,1.4041331941454709,0.05687022509571005
0.15,0.2958140342086999,1.3265603353475601,0.06761222452123938
0.16,0.30834637739188303,1.2532343183183117,0.07792701448564454
0.17,0.32018568239360823,1.183930500172521,0.08775216639719208
0.18,0.3313700028428854,1.1184320449277192,0.09707353883504588
0.19,0.3419353214695738,1.0565318626688331,0.10589920129644259
0.2,0.35191565352583615,0.9980332056262381,0.11424702164325318
0.21,0.3613431499323383,0.9427496406502138,0.12213877981579468
0.22,0.37024819734105674,0.890504740871847,0.1295973975076068
0.23,0.3786595139350726,0.8411316594015814,0.1366456544037966
0.24,0.3866042405549612,0.7944726619888606,0.14330561254111807
0.25,0.39410802710053044,0.7503786545569279,0.14959837695258393
0.26,0.40119511432030613,0.7087087219775667,0.15554401503511794
0.27,0.4078884111718395,0.6693296851533337,0.16116154990660636
0.28,0.41420956796257485,0.6321156790735337,0.1664689873645866
0.29,0.4201790454870374,0.5969477524462551,0.17148335724526786
0.3,0.4258161803726324,0.5637134885595008,0.17622076009910348
0.31,0.4311392468386891,0.5323066466056681,0.18069641492773947
0.32,0.43616551506405493,0.5026268225365846,0.1849247060313446
0.33,0.4409113063487298,0.4745791284674912,0.188919228109385
0.34,0.44539204524527637,0.4480738896546539,0.1926928292797374
0.35000000000000003,0.44962230882629595,0.42302635810195627,0.19625765192298905
0.36,0.4536158732452246,0.3993564418928691,0.19962517137325442
0.37,0.4573857577391106,0.3769884493885968,0.20280623252632402
0.38,0.4609442662138899,0.35585084747792906,0.20581108445717589
0.39,0.464303026544969,0.33587603310791403,0.20864941314575902
0.4,0.4674730277186307,0.31700011736616684,0.21133037240896968
0.41000000000000003,0.470464654932886,0.29916272142552514,0.21386261313598154
0.42,0.47328772276988024,0.2823067836994279,0.2162543109182331
0.43,0.47595150654580176,0.2663783775921549,0.21851319216192389
0.44,0.4784647719384204,0.2513265392618638,0.22064655876606776
0.45,0.480835802986884,0.23710310484636013,0.22266131144510526
0.46,0.48307242855320104,0.22366255663170168,0.22456397177003762
0.47000000000000003,0.4851820473299241,0.2109618776723046,0.22636070299848066
0.48,0.48717165147390684,0.19896041439827217,0.22805732976078996
0.49,0.48904784894161757,0.1876197467710702,0.2296593566640699
0.5,0.4908168845973465,0.17690356557289552,0.23117198587459686
0.51,0.4924846601617242,0.16677755643777187,0.23260013373388455
0.52,0.49405675306426416,0.15720929025399777,0.2339484464620072
0.53,0.49553843426014327,0.14816811958790974,0.23522131499825072
0.54,0.4969346850681246,0.13962508079813607,0.23642288902628994
0.55,0.4982502130834018,0.13155280152771512,0.2375570902289209
0.56,0.4994894672161877,0.12392541327859369,0.23862762481434419
0.5700000000000001,0.500656651904081,0.11671846878933252,0.23963799535477903
0.58,0.5017557405436015,0.10990886395204767,0.2405915119738583
0.59,0.5027904881837945,0.10347476401929757,0.24149130292032361
0.6,0.5037644435224458,0.0973955338651338,0.24234032455990828
0.61,0.5046809602432223,0.09165167207765014,0.24314137081895315
0.62,0.5055432077299471,0.08622474867247863,0.24389708210872107
0.63,0.5063541811922305,0.08109734622834146,0.24460995375984118
0.64,0.5071167112347965,0.07625300425659357,0.24528234399280702
0.65,0.5078334729010678,0.07167616662713067,0.24591648145106604
0.66,0.5085069942198952,0.06735213188273587,0.24651447232015122
0.67,0.5091396642827266,0.06326700628313651,0.24707830705532197
0.68,0.5097337408770152,0.05940765942885182,0.24760986674008456
0.6900000000000001,0.5102913577002459,0.05576168232307344,0.24811092909514976
0.7000000000000001,0.5108145311776221,0.052317347737618626,0.2485831741571115
0.71,0.511305166905186,0.04906357275639109,0.249028189645345
0.72,0.5117650657389532,0.04598988337671649,0.2494474760340425
0.73,0.512195929549508,0.0430863810554829,0.24984245134549898
0.74,0.5125993666604404,0.040343711093243154,0.2502144556800979
0.75,0.5129768969879932,0.037753032755287866,0.25056475549728885
0.76,0.5133299568983362,0.03530599103429166,0.2508945476616785
0.77,0.5136599037979792,0.0329946899643097,0.25120496326649433
0.78,0.5139680204719885,0.030811667400930977,0.2514970712473572
0.79,0.5142555191838581,0.028749871186959604,0.25177188179674603
0.8,0.5145235455501345,0.026802636627630983,0.25203034959212267
0.81,0.5147731822021674,0.024963665203289503,0.2522733768454679
0.8200000000000001,0.5150054522466835,0.023227004451612715,0.25250181618596057
0.8300000000000001,0.5152213225362346,0.021587028955120525,0.2527164733842262
0.84,0.5154217067599667,0.02003842237320574,0.25291810992652974
0.85,0.5156074683645803,0.018576160461361187,0.2531074454481407
0.86,0.5157794233148134,0.01719549502331376,0.25328516003249646
0.87,0.5159383427022617,0.01589193874483167,0.2534518963842427
0.88,0.5160849552108695,0.01466125086077728,0.2536082618830028
0.89,0.5162199494469654,0.013499423609586197,0.25375483052391257
0.9,0.5163439761412852,0.012402669431990065,0.2538921447523145
0.91,0.5164576502300151,0.011367408872984546,0.2540207171965825
0.92,0.5165615528215002,0.010390259148503759,0.25414103230669194
0.93,0.5166562330549026,0.009468023340242169,0.2542535479023861
0.9400000000000001,0.5167422098567436,0.00859768018409975,0.2543586966361482
0.9500000000000001,0.5168199736009401,0.007776374419654653,0.2544568873759707
0.96,0.5168899876776386,0.007001407669844146,0.2545485065121923
0.97,0.5169526899758559,0.006270229821720297,0.2546339191925029
0.98,0.5170084942846633,0.005580430880743137,0.2547134704890165
0.99,0.5170577916173893,0.004929733272594512,0.25478748650121696
1.0,0.5171009514630687,0.004315984567940779,0.25485627539845457
1.01,0.5171383229691376,0.0037371506068963004,0.25492012840505995
1.02,0.5171702360591499,0.003191309001222398,0.25497932073127794
1.03,0.5171970024890853,0.0026766429935384086,0.2550341124533463
1.04,0.5172189168456242,0.002191435653889551,0.2550847493448233
1.05,0.5172362574895757,0.0017340643951488932,0.2551314636623503
1.06,0.5172492874474733,0.00130299578976385,0.25517447488851186
1.07,0.5172582552541861,0.0008967806712798787,0.2552139904337789
1.08,0.5172633957492356,0.0005140495049477333,0.25525020629941153
1.09,0.5172649308293626,0.00015350801270193603,0.2552833077046337
1.1,0.5172630701597478,-0.00018606696148743565,0.2553134696791386
1.11,0.5172580118461564,-0.0005058313591475296,0.2553408576225292
1.12,0.5172499430701554,-0.0008068776001020852,0.2553656278339589
1.1300000000000001,0.517239040689431,-0.0010902380724283347,0.25538792801176413
1.1400000000000001,0.5172254718051245,-0.00135688843065806,0.2554078977262041
1.1500000000000001,0.5172093942979966,-0.0016077507127788663,0.25542566886602514
1.16,0.5171909573351369,-0.0018436962859711195,0.25544136606068635
1.17,0.5171703018488315,-0.0020655486305377006,0.25545510707891705
1.18,0.517147560989123,-0.0022740859708519803,0.25546700320600413
1.19,0.5171228605515052,-0.0024700437617715845,0.25547715959993944
1.2,0.5170963193811206,-0.002654117038468207,0.2554856756279006
1.21,0.5170680497547494,-0.00282696263711843,0.25549264518482395
1.22,0.5170381577418132,-0.0029892012936291626,0.25549815699370815
1.23,0.517006743545543,-0.0031414196270223684,0.25550229489015996
1.24,0.5169739018254041,-0.003284172013880543,0.25550513809067854
1.25,0.5169397220018063,-0.003417982359792937,0.25550676144663786
1.26,0.5169042885440712,-0.0035433457735024156,0.25550723568391187
1.27,0.5168676812425811,-0.0036607301490169334,0.2555066276301392
1.28,0.5168299754659723,-0.003770577660882302,0.2555050004281284
1.29,0.5167912424042,-0.003873306177225161,0.2555024137391164
1.3,0.516751549298248,-0.003969310595212933,0.25549892393360973
1.31,0.5167109596572166,-0.004058964103138896,0.2554945842722579
1.32,0.5166695334634853,-0.004142619373130702,0.2554894450771208
1.33,0.5166273273666014,-0.004220609688382915,0.2554835538926552
1.34,0.5165843948665173,-0.004293250008411975,0.25547695563881867
1.35,0.5165407864867589,-0.004360837975835275,0.2554696927548197
1.36,0.5164965499380811,-0.004423654867780586,0.2554618053360087
1.37,0.5164517302731304,-0.004481966495070323,0.2554533312622529
1.3800000000000001,0.5164063700326106,-0.004536024051980426,0.255444306319929
1.3900000000000001,0.5163605093834173,-0.004586064919331401,0.25543476431680534
1.4000000000000001,0.5163141862491829,-0.004632313423434459,0.25542473719101233
1.41,0.5162674364336494,-0.00467498155335731,0.2554142551136457
1.42,0.5162202937372615,-0.00471426963878413,0.2554033465858778
1.43,0.5161727900673554,-0.004750366990614619,0.25539203853093384
1.44,0.5161249555422914,-0.00478345250639849,0.2553803563805317
1.45,0.5160768185898666,-0.004813695242479688,0.2553683241571345
1.46,0.5160284060403194,-0.004841254954718866,0.2553559645513017
1.47,0.5159797432142244,-0.004866282609507356,0.25534329899491537
1.48,0.5159308540055572,-0.0048889208667177615,0.2553303477302544
1.49,0.5158817609601963,-0.004909304536081649,0.2553171298757808
1.5,0.5158324853501108,-0.004927561008547011,0.25530366348740374
1.51,0.5157830472434719,-0.004943810663895893,0.2552899656172931
1.52,0.515733465570912,-0.004958167255991536,0.25527605236883155
1.53,0.5156837581881437,-0.004970738276837478,0.25526193894900084
1.54,0.5156339419351371,-0.0049816253006559124,0.2552476397174688
1.55,0.5155840326920466,-0.004990924309051215,0.25523316823328757
1.56,0.5155340454320634,-0.004998725998322685,0.25521853729878297
1.57,0.5154839942713647,-0.005005116069871891,0.25520375900137826
1.58,0.5154338925163182,-0.005010175504651499,0.25518884475295034
1.59,0.5153837527080924,-0.005013980822572384,0.2551738053266245
1.6,0.5153335866648162,-0.00501660432762584,0.25515865089222545
1.61,0.5152834055214206,-0.005018114339559004,0.25514339104926353
1.62,0.5152332197672927,-0.005018575412784254,0.2551280348586783
1.6300000000000001,0.5151830392818596,-0.005018048543319192,0.25511259087190485
1.6400000000000001,0.5151328733682164,-0.0050165913643100135,0.255097067159362
1.6500000000000001,0.5150827307849082,-0.005014258330821692,0.25508147133683645
1.6600000000000001,0.515032619775963,-0.005011100894510973,0.25506581059015043
1.67,0.5149825480992766,-0.005007167668648943,0.25505009169934634
1.68,0.5149325230534354,-0.005002504584112666,0.2550343210606766
1.69,0.5148825515030675,-0.0049971550367867825,0.2550185047079202
1.7,0.5148326399027985,-0.004991160026899438,0.2550026483320138
1.71,0.5147827943198919,-0.0049845582906582085,0.2549867573003618
1.72,0.5147330204556451,-0.004977386424686264,0.2549708366743363
1.73,0.5146833236656091,-0.004969679003600308,0.25495489122633896
1.74,0.5146337089786975,-0.004961468691160159,0.25493892545540586
1.75,0.5145841811152448,-0.00495278634526925,0.25492294360267775
1.76,0.5145347445040724,-0.004943661117237968,0.2549069496653006
1.77,0.5144854032986166,-0.004934120545587533,0.2548909474099216
1.78,0.5144361613921696,-0.004924190644692888,0.254874940385461
1.79,0.5143870224322842,-0.004913895988546701,0.25485893193520026
1.8,0.5143379898343846,-0.004903259789954911,0.2548429252077866
1.81,0.5142890667946313,-0.004892303975337147,0.2548269231683925
1.82,0.5142402563020767,-0.004881049255459973,0.2548109286084188
1.83,0.5141915611501543,-0.004869515192245154,0.25479494415545656
1.84,0.5141429839475349,-0.004857720261937087,0.2547789722820353
1.85,0.5140945271283871,-0.004845681914780114,0.2547630153143686
1.86,0.5140461929620727,-0.004833416631445924,0.2547470754401454
1.87,0.5139979835623096,-0.004820939976306826,0.2547311547167044
1.8800000000000001,0.5139499008958313,-0.0048082666478417415,0.25471525507765225
1.8900000000000001,0.513901946790569,-0.0047954105262313805,0.25469937834009837
1.9000000000000001,0.5138541229433854,-0.004782384718363208,0.25468352621085055
1.9100000000000001,0.513806430927382,-0.004769201600345135,0.2546677002926918
1.92,0.513758872198805,-0.0047558728577011215,0.2546519020899586
1.93,0.5137114481035716,-0.004742409523339031,0.25463613301417287
1.94,0.5136641598834372,-0.0047288220134481425,0.2546203943890252
1.95,0.5136170086818229,-0.004715120161423615,0.2546046874552398
1.96,0.5135699955493239,-0.004701313249904904,0.25458901337538675
1.97,0.513523121448913,-0.004687410041096041,0.25457337323779816
1.98,0.5134763872608593,-0.0046734188053666305,0.25455776806120256
1.99,0.513429793787376,-0.00465934734833135,0.25454219879809914
2.0,0.5133833417570118,-0.004645203036413832,0.25452666633869747
2.0100000000000002,0.5133370318288017,-0.004630992821012565,0.2545111715143117
2.02,0.5132908645961884,-0.004616723261330803,0.2544957151007122
2.0300000000000002,0.5132448405907288,-0.004602400545963593,0.25448029782110093
2.04,0.5131989602855958,-0.004588030513304848,0.25446492034897006
2.05,0.5131532240988878,-0.004573618670805453,0.2544495833111394
2.06,0.5131076323967556,-0.004559170213214626,0.25443428728994943
2.07,0.513062185496358,-0.0045446900397608245,0.2544190328263085
2.08,0.5130168836686534,-0.004530182770455044,0.25440382042135634
2.09,0.5129717271410388,-0.004515652761456186,0.25438865053908777
2.1,0.5129267160998429,-0.004501104119591094,0.25437352360844223
2.11,0.5128818506926818,-0.004486540716104627,0.25435844002499053
2.12,0.5128371310306856,-0.004471966199619566,0.25434340015313917
2.13,0.5127925571906014,-0.004457384008424199,0.2543284043274867
2.14,0.512748129216781,-0.004442797382031528,0.2543134528550153
2.15,0.5127038471230593,-0.004428209372172155,0.25429854601596846
2.16,0.5126597108945281,-0.004413622853112804,0.2542836840660371
2.17,0.5126157204892134,-0.0043990405314612855,0.25426886723722286
2.18,0.5125718758396595,-0.004384464955399837,0.25425409573949054
2.19,0.5125281768544251,-0.004369898523432581,0.2542393697618024
2.2,0.5124846234194989,-0.004355343492623404,0.254224689473588
2.21,0.5124412153996345,-0.00434080198643162,0.25421005502535554
2.22,0.512397952639614,-0.004326276002053537,0.2541954665503823
2.23,0.5123548349654398,-0.004311767417418866,0.25418092416512694
2.24,0.5123118621854622,-0.004297277997755872,0.2541664279706404
2.25,0.5122690340914439,-0.004282809401831134,0.2541519780531005
2.2600000000000002,0.5122263504595657,-0.004268363187821811,0.2541375744848996
2.27,0.5121838110513768,-0.004253940818887048,0.2541232173252196
2.2800000000000002,0.5121414156146927,-0.004239543668402935,0.254108906621086
2.29,0.5120991638844433,-0.004225173024945051,0.2540946424077237
2.3000000000000003,0.5120570555834736,-0.004210830096975849,0.25408042470944114
2.31,0.512015090423301,-0.004196516017265917,0.2540662535403482
2.32,0.5119732681048299,-0.00418223184710318,0.2540521289046449
2.33,0.5119315883190275,-0.004167978580239074,0.2540380507975044
2.34,0.5118900507475611,-0.00415375714664456,0.25402401920533935
2.35,0.5118486550634008,-0.004139568416031536,0.2540100341065885
2.36,0.5118074009313888,-0.004125413201200634,0.25399609547199364
2.37,0.5117662880087768,-0.004111292261199639,0.253982203265104
2.38,0.5117253159457336,-0.004097206304322964,0.2539683574425553
2.39,0.5116844843858245,-0.004083155990905018,0.25395455795488475
2.4,0.5116437929664645,-0.004069141935999876,0.25394080474651115
2.41,0.5116032413193453,-0.004055164711909265,0.2539270977561384
2.42,0.5115628290708398,-0.004041224850547898,0.2539134369173317
2.43,0.5115225558423828,-0.004027322845703874,0.2538998221585862
2.44,0.5114824212508312,-0.004013459155155658,0.25388625340382165
2.45,0.5114424249088044,-0.003999634202680763,0.25387273057258675
2.46,0.5114025664250047,-0.003985848379977369,0.25385925358009576
2.47,0.5113628454045205,-0.003972102048422838,0.25384582233805897
2.48,0.5113232614491126,-0.003958395540789784,0.2538324367543794
2.49,0.511283814157484,-0.003944729162849759,0.2538190967335616
2.5,0.5112445031255352,-0.003931103194884784,0.2538058021769669
2.5100000000000002,0.511205327946604,-0.003917517893111866,0.25379255298305436
2.52,0.5111662882116936,-0.0039039734910398475,0.25377934904746624
2.5300000000000002,0.5111273835096861,-0.003890470200750557,0.2537661902632198
2.54,0.5110886134275452,-0.0038770082140926424,0.25375307652104695
2.5500000000000003,0.5110499775505067,-0.003863587703842625,0.25374000770922644
2.56,0.5110114754622591,-0.003850208824766677,0.2537269837140915
2.57,0.5109731067451125,-0.0038368717146530402,0.25371400441988257
2.58,0.51093487098016,-0.0038235764952517575,0.25370106970924255
2.59,0.5108967677474278,-0.0038103232732184696,0.253688179462787
2.6,0.5108587966260183,-0.0037971121409432823,0.2536753335598565
2.61,0.5108209571942445,-0.0037839431773816993,0.25366253187815335
2.62,0.5107832490297564,-0.0037708164488125086,0.2536497742941233
2.63,0.5107456717096607,-0.0037577320095659784,0.25363706068293723
2.64,0.5107082248106336,-0.0037446899027081594,0.25362439091862554
2.65,0.5106709079090266,-0.0037316901606975652,0.25361176487406867
2.66,0.5106337205809668,-0.0037187328059789027,0.25359918242135115
2.67,0.5105966624024509,-0.0037058178515847087,0.2535866434314359
2.68,0.5105597329494344,-0.003692945301658807,0.2535741477746921
2.69,0.5105229317979145,-0.0036801151519859523,0.25356169532061634
2.7,0.5104862585240098,-0.00366732739047842,0.2535492859380396
2.71,0.5104497127040335,-0.0036545819976294305,0.2535369194952556
2.72,0.5104132939145639,-0.0036418789469617576,0.25352459585987874
2.73,0.5103770017325097,-0.0036292182054243395,0.25351231489917525
2.74,0.5103408357351717,-0.003616599733789888,0.25350007647988715
2.75,0.5103047955003015,-0.003604023487025365,0.25348788046833615
2.7600000000000002,0.5102688806061552,-0.0035914894146309327,0.2534757267305824
2.77,0.5102330906315455,-0.003578997460966998,0.25346361513240145
2.7800000000000002,0.5101974251558897,-0.0035665475655780985,0.25345154553917826
2.79,0.5101618837592552,-0.003554139663457972,0.2534395178163571
2.8000000000000003,0.5101264660224015,-0.0035417736853650622,0.2534275318288277
2.81,0.5100911715268212,-0.0035294495580401038,0.25341558744176784
2.82,0.5100559998547762,-0.0035171672044943475,0.25340368451984807
2.83,0.5100209505893342,-0.0035049265442093076,0.25339182292799134
2.84,0.5099860233144003,-0.0034927274933762515,0.253380002530893
2.85,0.5099512176147494,-0.003480569965093238,0.2533682231933422
2.86,0.5099165330760536,-0.003468453869578447,0.25335648477997597
2.87,0.5098819692849103,-0.0034563791143355834,0.2533447871556662
2.88,0.5098475258288668,-0.0034443456043424855,0.2533331301852183
2.89,0.5098132022964449,-0.0034323532421995204,0.2533215137336918
2.9,0.5097789982771618,-0.003420401928315114,0.25330993766596677
2.91,0.5097449133615515,-0.0034084915610245346,0.2532984018473291
2.92,0.509710947141184,-0.003396622036743246,0.25328690614307636
2.93,0.509677099208683,-0.0033847932501099905,0.2532754504185529
2.94,0.5096433691577421,-0.003373005094086567,0.25326403453952073
2.95,0.5096097565831413,-0.0033612574600810625,0.2532526583718828
2.96,0.5095762610807605,-0.0033495502380799067,0.2532413217815417
