time,theta,theta_dot,tau
0.0,0.002,0.2,2
0.01,0.005989,0.39890000000000003,2
0.02,0.0119550605,0.59660605,2
0.03,0.01988531316725,0.793025266725,2
0.04,0.029765971914580126,0.9880658747330124,2
0.05,0.04158234438221631,1.1816372467636183,2
0.06,0.055318843815323204,1.3736499433106895,2
0.07,0.0709590013293569,1.56401575140337,2
0.08,0.08848547855515575,1.7526477225798853,2
0.09,0.10788008065554802,1.9394602100392282,2
0.1,0.12912376970511058,2.1243689049562544,2
0.11,0.15124482632223568,2.212105661712511,1.0481478976629361
0.12,0.17316036317584976,2.191553685361407,-0.01929206726429733
0.13,0.19433842783617306,2.117806466032328,-0.5413143274347956
0.14,0.2145360789458939,2.019765110972086,-0.7773540133827179
0.15,0.23366094338132554,1.9124864435431612,-0.8645303792676984
0.16,0.2516981039533651,1.8037160572039597,-0.8752490695241946
0.17,0.26867154790518316,1.6973443951818035,-0.8476817653846815
0.18,0.28462389493467055,1.595234702948738,-0.8018939286189735
0.19,0.2996057900137114,1.4981895079040872,-0.7483782678317352
0.2,0.3136704029983692,1.406461298465775,-0.6925697239810633
0.21,0.3268706236099754,1.320022061160618,-0.6372341066290961
0.22,0.339257676205906,1.2387052595930672,-0.5837316008124889
0.23,0.3508804797622809,1.162280355637484,-0.5326849384732251
0.24,0.3617853964876299,1.0904916725349025,-0.4843325733628001
0.25,0.3720161807318493,1.0230784244219335,-0.43871519925913116
0.26,0.38161402886038753,0.959784812853826,-0.39577410409405367
0.27,0.3906176778408572,0.9003648980469685,-0.3554028929956896
0.28,0.3990635251813445,0.844584734048733,-0.31747455615957776
0.29,0.4069857560136376,0.7922230832293075,-0.28185550890114675
0.3,0.4144164700583882,0.7430714044750595,-0.24841275537419616
0.31,0.4213858048679346,0.6969334809546345,-0.2170174299513028
0.32,0.42792205366387687,0.6536248795942273,-0.18754643712237273
0.33,0.4340517770894425,0.6129723425565639,-0.15988309956498448
0.34,0.439799908714483,0.5748131625040525,-0.13391729485256443
0.35000000000000003,0.4451898543928284,0.5389945678345405,-0.10954533421267554
0.36,0.45024358569893086,0.5053731306102505,-0.0866697166547592
0.37,0.4549817277273671,0.4738142028436252,-0.06519882828627477
0.38,0.4594236415587185,0.4441913831351402,-0.04504662307898455
0.39,0.4635875016965008,0.41638601377823165,-0.026132303632969478
0.4,0.46749036877159444,0.3902867075093612,-0.008380011151542632
0.41000000000000003,0.47114825779798963,0.36578890263951724,0.008281471062826062
0.42,0.4745762022491942,0.34279444512045937,0.023918998840391836
0.43,0.4777883142096928,0.32121119604986076,0.03859533267463422
0.44,0.4807978408410758,0.3009526631382977,0.052369387791708855
0.45,0.48361721738820523,0.28193765471294363,0.0652964693239122
0.46,0.4862581169372029,0.26408995489976694,0.07742849329798296
0.47000000000000003,0.4887314971241872,0.24733801869843036,0.08881419420022407
0.48,0.4910476439815594,0.23161468573722493,0.09949931988496097
0.49,0.4932162130972257,0.21685691156662654,0.10952681457165703
0.5,0.49524626825140994,0.20300551541842596,0.11893699064493846
0.51,0.49714631768563283,0.19000494342229093,0.12776768993527599
0.52,0.4989243481489625,0.17780304633296826,0.13605443512070425
0.53,0.5005878568577536,0.16635087087910705,0.14383057185251769
0.54,0.5021438814967442,0.15560246389905355,0.15112740217229725
0.55,0.5035990283815446,0.14551468848004184,0.1579743097532076
0.56,0.5049594988951963,0.1360470513651734,0.16439887746608994
0.5700000000000001,0.5062311143045736,0.1271615409377237,0.17042699774135983
0.58,0.5074193390559184,0.11882247513448871,0.1760829761668231
0.59,0.5085293026427157,0.11099635867973011,0.18138962873709763
0.6,0.5095658201334003,0.10365174906846479,0.18636837314269117
0.61,0.5105334114410299,0.09675913076296329,0.19103931446510836
0.62,0.5114363194120206,0.09029079709906355,0.19542132561966585
0.63,0.5122785268063185,0.0842207394297862,0.1995321228681899
0.64,0.5130637722369468,0.07852454306282504,0.20338833670503698
0.65,0.5137955651327006,0.07317928957539065,0.20700557839727074
0.66,0.514477199783858,0.06816346511573872,0.2103985024486006
0.67,0.5151117685271014,0.0634568743243432,0.21358086523376074
0.68,0.5157021741224057,0.05904055953043742,0.21656558004071003
0.6900000000000001,0.5162511413714113,0.054896724900553494,0.21936476873888544
0.7000000000000001,0.516761228023767,0.05100866523557655,0.22198981028096387
0.71,0.5172348350150819,0.04736069913149201,0.2244513862328169
0.72,0.517674216077445,0.0439381062363071,0.22675952351226647
0.73,0.5180814867609671,0.04072706835220922,0.228923634509559
0.74,0.5184586329024394,0.037714614147229195,0.2309525547482938
0.75,0.5188075185749919,0.03488856725524701,0.23285457823875932
0.76,0.5191298935505587,0.032237497556685174,0.2346374906646399
0.77,0.5194274003050078,0.02975067544490963,0.23630860053535818
0.78,0.5197015805939624,0.027418028895463336,0.23787476843028643
0.79,0.5199538816256247,0.02523010316623351,0.23934243444945613
0.8,0.5201856618552991,0.023178022967441425,0.24071764398320317
0.81,0.5203981964247989,0.021253456949977816,0.24200607190138557
0.8200000000000001,0.5205926822685,0.01944858437011116,0.24321304526123178
0.8300000000000001,0.520770242906471,0.017756063797105138,0.24434356462269535
0.84,0.5209319329438569,0.016169003738590055,0.24540232405793994
0.85,0.5210787422945184,0.014680935066160392,0.24639372993456132
0.86,0.5212116001458269,0.01328578513084405,0.24732191854740382
0.87,0.521331378680476,0.011977853464911552,0.24819077267013068
0.88,0.5214388965702039,0.010751788972793946,0.2490039370923075
0.89,0.5215349222554021,0.009602568519819749,0.24976483320399967
0.9,0.521620177023734,0.008525476833191159,0.25047667268740614
0.91,0.5216953379000806,0.0075160876346610506,0.25114247036822546
0.92,0.5217610403593759,0.00657024592952819,0.25176505628044477
0.93,0.5218178808731864,0.005684051381044448,0.2523470869913269
0.9400000000000001,0.5218664193002233,0.004853842703687884,0.25289105623207975
0.9500000000000001,0.5219071811303526,0.004076183012933544,0.25339930487775264
0.96,0.5219406595910807,0.0033478460728118336,0.25387403031460587
0.97,0.521967317624944,0.0026658033863220416,0.25431729523428304
0.98,0.5219875897457137,0.0020272120769743115,0.2547310358883108
0.99,0.5220018837808441,0.0014294035130457024,0.25511706983741944
1.0,0.5220105825071336,0.0008698726289450571,0.2554771032250679
1.01,0.5220140451861441,0.00034626790105669663,0.25581273760613044
1.02,0.5220126090055233,-0.0001436180620868582,0.25612547635668936
1.03,0.5220065904319932,-0.000601857353006407,0.2564167306904618
1.04,0.5219962864814225,-0.0010303950570626657,0.25668782530778367
1.05,0.521981975911061,-0.001431057036144428,0.2569400036970405
1.06,0.521963920338708,-0.0018055572352972777,0.2571744331121948
1.07,0.5219423652932921,-0.00215550454158887,0.2573922092446732
1.08,0.5219175412010659,-0.002482409222619208,0.2575943606092632
1.09,0.5218896643113614,-0.0027876889704527836,0.25778185266106624
1.1,0.52185893756561,-0.0030726745751438185,0.25795559166024773
1.11,0.5218255514131042,-0.0033386152505792462,0.2581164282996935
1.12,0.5217896845767651,-0.0035866836339074,0.2582651611107416
1.1300000000000001,0.5217515047719792,-0.0038179804785905044,0.25840253965985616
1.1400000000000001,0.5217111693813808,-0.004033539059828756,0.25852926754967753
1.1500000000000001,0.5216688260882806,-0.004234329310029583,0.2586460052356907
1.16,0.5216246134712725,-0.004421261700809775,0.25875337267083687
1.17,0.5215786615624017,-0.004595190887085403,0.2588519517878395
1.18,0.5215310923711232,-0.004756919127859898,0.25894228882910164
1.19,0.5214820203761497,-0.004907199497353436,0.2590248965342332
1.2,0.5214315529871562,-0.005046738899345292,0.2591002561932886
1.21,0.5213797909781884,-0.005176200896768639,0.2591688195743773
1.22,0.5213268288945092,-0.005296208367924014,0.25923101073270205
1.23,0.5212727554345105,-0.005407345999872403,0.2592872277093745
1.24,0.5212176538082202,-0.005510162629033509,0.25933784412565053
1.25,0.5211616020738364,-0.0056051734383680924,0.2593832106793126
1.26,0.5211046734536379,-0.005692862019852888,0.25942365655015187
1.27,0.5210469366305317,-0.005773682310618554,0.25945949071816965
1.28,0.5209884560264278,-0.005848060410381965,0.25949100320210083
1.29,0.5209292920635528,-0.005916396287510055,0.25951846622141395
1.3,0.5208695014097472,-0.005979065380557207,0.2595421352869294
1.31,0.5208091372087311,-0.006036420101605443,0.2595622502253634
1.32,0.520748249296256,-0.006088791247511592,0.2595790361402238
1.33,0.5206868844030095,-0.006136489324647102,0.2595927043143973
1.34,0.5206250863450849,-0.006179805792459023,0.25960345305715316
1.35,0.5205628962027768,-0.006219014230806355,0.25961146849944616
1.36,0.5205003524884191,-0.006254371435780018,0.2596169253401115
1.37,0.5204374913039357,-0.00628611844833434,0.2596199875468773
1.3800000000000001,0.5203743464887366,-0.006314481519909262,0.2596208090138019
1.3900000000000001,0.5203109497585479,-0.006339673018871874,0.2596195341787467
1.4000000000000001,0.5202473308357342,-0.00636189228136719,0.2596162986033772
1.41,0.5201835175716334,-0.006381326410077306,0.2596112295166976
1.42,0.5201195360613934,-0.006398151023999706,0.2596044463260888
1.43,0.5200554107517706,-0.006412530962272263,0.25959606109677114
1.44,0.5199911645423217,-0.006424620944885075,0.2595861790016436
1.45,0.5199268188803929,-0.006434566192881393,0.25957489874395345
1.46,0.5198623938502873,-0.0064425030105628904,0.25956231295373744
1.47,0.5197979082569674,-0.006448559331996275,0.25954850856028167
1.48,0.5197333797046269,-0.006452855234049694,0.2595335671413497
1.49,0.5196688246704472,-0.0064555034179723985,0.2595175652513839
1.5,0.5196042585738324,-0.00645660966147363,0.25950057472931265
1.51,0.5195396958414017,-0.0064562732430667145,0.25948266298791167
1.52,0.5194751499679972,-0.006454587340454289,0.2594638932846718
1.53,0.5194106335739526,-0.006451639404459793,0.2594443249769208
1.54,0.5193461584588521,-0.0064475115100464464,0.25942401376088675
1.55,0.5192817356519936,-0.006442280685844939,0.25940301189593884
1.56,0.519217375459759,-0.006436019223464025,0.25938136841551374
1.57,0.5191530875100803,-0.00642879496786787,0.25935912932466787
1.58,0.519088880794181,-0.006420671589927276,0.2593363377860527
1.59,0.519024763705758,-0.006411708842299548,0.2593130342938714
1.6,0.5189607440777622,-0.006401962799588253,0.25928925683787696
1.61,0.5188968292169238,-0.00639148608383945,0.2592650410563897
1.62,0.5188330259361622,-0.006380328076156934,0.25924042038109507
1.6300000000000001,0.5187693405850083,-0.006368535115388226,0.25921542617196036
1.6400000000000001,0.518705779078162,-0.006356150684641439,0.2591900878442026
1.6500000000000001,0.5186423469222987,-0.006343215586322328,0.25916443298804004
1.6600000000000001,0.5185790492412338,-0.006329768106492252,0.259138487480134
1.67,0.5185158907995424,-0.006315844169140413,0.25911227558881067
1.68,0.5184528760247324,-0.006301477480991443,0.2590858200728039
1.69,0.5183900090280581,-0.00628669966742972,0.2590591422739339
1.7,0.5183272936240567,-0.006271540400140487,0.2590322622035499
1.71,0.518264733348888,-0.006256027516872572,0.2590051986247005
1.72,0.5182023314775492,-0.006240187133878735,0.25897796912853877
1.73,0.5181400910400343,-0.006224043751489191,0.2589505902059761
1.74,0.5180780148365025,-0.006207620353184691,0.2589230773154877
1.75,0.5180161054515163,-0.006190938498618666,0.2588954449462523
1.76,0.5179543652674071,-0.006174018410914969,0.2588677066778642
1.77,0.5178927964768207,-0.006156879058639594,0.25883987523591157
1.78,0.5178314010944933,-0.006139538232746258,0.25881196254441174
1.79,0.5177701809683055,-0.006122012618777436,0.25878397977529755
1.8,0.5177091377896589,-0.006104317864668731,0.2587559373943009
1.81,0.5176482731032147,-0.006086468644413681,0.2587278452041465
1.82,0.5175875883160371,-0.006068478717760453,0.25869971238591893
1.83,0.5175270847061737,-0.006050360986338985,0.25867154753634525
1.84,0.5174667634307111,-0.006032127546260472,0.258643358704555
1.85,0.5174066255333354,-0.006013789737568457,0.25861515342496266
1.86,0.5173466719514294,-0.0059953581906042755,0.25858693874943106
1.87,0.5172869035227338,-0.005976842869559061,0.2585587212766366
1.8800000000000001,0.5172273209916003,-0.00595825311334636,0.2585305071800159
1.8900000000000001,0.5171679250148605,-0.005939597673979711,0.25850230223379933
1.9000000000000001,0.5171087161673347,-0.005920884752587761,0.2584741118376508
1.9100000000000001,0.5170496949470025,-0.005902122033217347,0.25844594103974206
1.92,0.5169908617798566,-0.0058833167145841666,0.25841779455817215
1.93,0.516932217024458,-0.005864475539865752,0.25838967680138325
1.94,0.5168737609762114,-0.005845604824659886,0.25836159188729435
1.95,0.516815493871379,-0.005826710483240791,0.25833354366106365
1.96,0.5167574158908469,-0.0058077980532162425,0.25830553571177295
1.97,0.5166995271636605,-0.0057888727186382796,0.25827757138854224
1.98,0.5166418277703432,-0.005769939331740006,0.2582496538148811
1.99,0.51658431774601,-0.005751002433313115,0.2582217859028535
2.0,0.5165269970832916,-0.005732066271830263,0.25819397036616787
2.0100000000000002,0.5164698657350772,-0.005713134821438412,0.2581662097319728
2.02,0.5164129236170893,-0.005694211798793517,0.2581385063529157
2.0300000000000002,0.5163561706103004,-0.005675300678894044,0.25811086241759973
2.04,0.516299606563201,-0.005656404709936816,0.25808327996077773
2.05,0.5162432312939281,-0.0056375269272812755,0.258055760872659
2.06,0.5161870445922628,-0.005618670166525828,0.2580283069081545
2.07,0.5161310462215049,-0.005599837075794065,0.25800091969512273
2.08,0.516075235920232,-0.00558103012728484,0.257973600742055
2.09,0.5160196134039511,-0.005562251628092999,0.25794635144567013
2.1,0.5159641783666473,-0.005543503730379982,0.25791917309770107
2.11,0.5159089304822383,-0.005524788440901544,0.25789206689158906
2.12,0.5158538694059385,-0.0055061076299822076,0.25786503392826743
2.13,0.5157989947755393,-0.005487463039922572,0.2578380752220665
2.14,0.5157443062126105,-0.005468856292881394,0.25781119170618527
2.15,0.5156898033236276,-0.005450288898290298,0.2577843842375721
2.16,0.5156354857010296,-0.005431762259804843,0.25775765360175384
2.17,0.5155813529242111,-0.005413277681843218,0.2577310005171408
2.18,0.5155274045604542,-0.005394836375695892,0.2577044256394867
2.19,0.5154736401658012,-0.0053764394652995855,0.25767792956540536
2.2,0.515420059285875,-0.005358087992619186,0.2576515128364396
2.21,0.5153666614566478,-0.005339782922723317,0.2576251759422652
2.22,0.5153134462051623,-0.005321525148552613,0.2575989193238948
2.23,0.5152604130502086,-0.0053033154953587725,0.2575727433770919
2.24,0.5152075615029594,-0.00528515472491704,0.2575466484547537
2.25,0.5151548910675647,-0.00526704353946854,0.2575206348697189
2.2600000000000002,0.5151024012417108,-0.005248982585394784,0.2574947028975465
2.27,0.5150500915171439,-0.005230972456692394,0.25746885277860954
2.2800000000000002,0.5149979613801616,-0.00521301369822556,0.25744308472040567
2.29,0.5149460103120738,-0.005195106808791438,0.25741739889951076
2.3000000000000003,0.5148942377896341,-0.005177252243976209,0.2573917954637496
2.31,0.5148426432854456,-0.005159450418848037,0.25736627453389993
2.32,0.5147912262683407,-0.005141701710487727,0.2573408362053835
2.33,0.5147399862037371,-0.00512400646036205,0.2573154805499027
2.34,0.5146889225539716,-0.005106364976543569,0.25729020761703525
2.35,0.5146380347786135,-0.005088777535808274,0.25726501743551156
2.36,0.5145873223347576,-0.005071244385589106,0.25723991001470803
2.37,0.5145367846772994,-0.005053765745818387,0.2572148853458065
2.38,0.5144864212591927,-0.00503634181065639,0.25718994340297874
2.39,0.5144362315316916,-0.005018972750117671,0.2571650841444507
2.4,0.5143862149445757,-0.005001658711592753,0.2571403075135891
2.41,0.5143363709463631,-0.004984399821265293,0.2571156134399828
2.42,0.5142866989845084,-0.004967196185468618,0.25709100184008504
2.43,0.514237198505589,-0.004950047891936097,0.25706647261830595
2.44,0.5141878689554792,-0.004932955010987803,0.25704202566768064
2.45,0.5141387097795128,-0.004915917596641598,0.25701766087065225
2.46,0.5140897204226365,-0.004898935687637804,0.25699337809996226
2.47,0.5140409003295521,-0.004882009308433109,0.25696917721898327
2.48,0.513992248944851,-0.004865138470111727,0.2569450580825682
2.49,0.5139437657131384,-0.00484832317125524,0.2569210205374848
2.5,0.513895450079151,-0.004831563398727721,0.25689706442328164
2.5100000000000002,0.5138473014878665,-0.004814859128455676,0.2568731895723596
2.52,0.5137993193846051,-0.004798210326134847,0.25684939581071875
2.5300000000000002,0.5137515032151263,-0.004781616947881682,0.2568256829585275
2.54,0.5137038524257174,-0.004765078940890863,0.25680205083007723
2.5500000000000003,0.5136563664632775,-0.00474859624398796,0.2567784992348432
2.56,0.5136090447753954,-0.004732168788214433,0.25675502797717464
2.57,0.5135618868104221,-0.004715796497319966,0.25673163685723166
2.58,0.5135148920175395,-0.004699479288260669,0.25670832567093804
2.59,0.5134680598468229,-0.004683217071660942,0.256685094210354
2.6,0.5134213897493006,-0.004667009752224414,0.2566619422641937
2.61,0.513374881177009,-0.004650857229156283,0.2566388696177204
2.62,0.5133285335830439,-0.00463475939651595,0.25661587605345004
2.63,0.5132823464216079,-0.004618716143597859,0.25659296135087706
2.64,0.5132363191480555,-0.004602727355238142,0.25657012528722123
2.65,0.513190451218934,-0.004586792912145901,0.2565473676371882
2.66,0.5131447420920222,-0.004570912691187276,0.256524688173446
2.67,0.5130991912263657,-0.00455508656565284,0.2565020866667961
2.68,0.5130537980823104,-0.004539314405523572,0.2564795628861929
2.69,0.5130085621215333,-0.004523596077710659,0.25645711659900816
2.7,0.5129634828070704,-0.004507931446290533,0.2564347475710824
2.71,0.5129185596033434,-0.004492320372693306,0.25641245556719294
2.72,0.5128737919761841,-0.004476762715930529,0.2563902403506648
2.73,0.5128291793928565,-0.004461258332758901,0.2563681016840118
2.74,0.5127847213220779,-0.004445807077871318,0.2563460393286662
2.75,0.5127404172340374,-0.004430408804047294,0.25632405304538564
2.7600000000000002,0.5126962666004142,-0.004415063362320717,0.2563021425940821
2.77,0.512652268894393,-0.004399770602120442,0.2562803077340938
2.7800000000000002,0.512608423590679,-0.004384530371396019,0.2562585482243347
2.79,0.5125647301655113,-0.004369342516770998,0.2562368638230199
2.8000000000000003,0.5125211880966751,-0.004354206883621799,0.2562152542884091
2.81,0.5124777968635128,-0.004339123316233742,0.25619371937803703
2.82,0.5124345559469341,-0.004324091657864656,0.25617225884963557
2.83,0.5123914648294253,-0.004309111750872954,0.25615087246049084
2.84,0.5123485229950573,-0.004294183436805018,0.25612955996784836
2.85,0.5123057299294925,-0.004279306556472376,0.2561083211290148
2.86,0.5122630851199923,-0.004264480950027619,0.2560871557013702
2.87,0.5122205880554216,-0.004249706457066114,0.2560660634421098
2.88,0.512178238226255,-0.004234982916658607,0.2560450441089326
2.89,0.5121360351245804,-0.004220310167462036,0.25602409745926025
2.9,0.5120939782441029,-0.0042056880477520575,0.2560032232510169
2.91,0.512052067080148,-0.004191116395477138,0.255982421242413
2.92,0.5120103011296646,-0.0041765950483397905,0.25596169119167367
2.93,0.5119686798912263,-0.0041621238438282115,0.2559410328575311
2.94,0.5119272028650336,-0.00414770261927083,0.25592044599899555
2.95,0.5118858695529148,-0.004133331211878236,0.2558999303754792
2.96,0.5118446794583269,-0.004119009458788295,0.2558794857467629
2.97,0.5118036320863559,-0.0041047371970956625,0.25585911187315036
2.98,0.5117627269437168,-0.004090514263910942,0.2558388085151704
2.99,0.5117219635387531,-0.00407634049637343,0.25581857543403796
