time,theta,theta_dot,tau
0.0,0.005,0.5,5
0.01,0.0149725,0.9972499999999999,5
0.02,0.029887651249999998,1.4915151249999998,5
0.03,0.04971328291812499,1.9825631668124997,5
0.04,0.07325075812142723,2.353747520330224,3.8358283349769327
0.05,0.09795037780512936,2.4699619683702125,1.3164572354771096
0.06,0.12251212556849599,2.4561747763366624,0.03460136698557292
0.07,0.14629424221195703,2.3782116643461038,-0.5955663183045043
0.08,0.16900045746921805,2.270621525726102,-0.8838436818767352
0.09,0.19051466192921668,2.151420445999862,-0.993979492241488
0.1,0.21081358634234754,2.0298924413130846,-1.0124516936031718
0.11,0.2299207485790441,1.910716223669657,-0.9848607611974458
0.12,0.24788222801532855,1.7961479436284467,-0.9351866149391004
0.13,0.2647539811198008,1.6871753104472267,-0.8759778206231132
0.14,0.28059525582222766,1.5841274702426844,-0.8137426459631607
0.15,0.29546522531163577,1.4869969489408108,-0.7518012115954891
0.16,0.3094213181286415,1.3956092817005727,-0.6917942122995226
0.17,0.3225184390300765,1.3097120901435015,-0.6344807924213622
0.18,0.33480865480190725,1.229021577183074,-0.5801603055820621
0.19,0.34634112008806284,1.1532465286155578,-0.5288950794150553
0.2,0.35716212458057267,1.0821004492509823,-0.4806279071709447
0.21,0.3673151991307482,1.015307455017557,-0.43524385758141815
0.22,0.3768412480657749,0.9526048935026696,-0.39260264283262103
0.23,0.385778690703978,0.8937442638203117,-0.35255542811555873
0.24,0.3941636033557179,0.8384912651739841,-0.3149534279202717
0.25,0.40202985746794473,0.7866254112226878,-0.2796521745764049
0.26,0.409409251866943,0.7379394398998265,-0.24651351393350707
0.27,0.4163316382535369,0.692238638659395,-0.21540641447585296
0.28,0.4228250397253743,0.6493401471837354,-0.18620716369685653
0.29,0.4289157624155435,0.6090722690169251,-0.15879925444622955
0.3,0.43462850049049534,0.5712738074951826,-0.13307312055880693
0.31,0.43998643481957944,0.5357934329084124,-0.1089258052476958
0.32,0.44501132565394,0.5024890834360595,-0.08626060566831928
0.33,0.4497235996553991,0.471227400145905,-0.06498671590277194
0.34,0.45414243160756185,0.44188319521627273,-0.04501887946132754
0.35000000000000003,0.4582858211276212,0.4143389520059328,-0.026277056538805077
0.36,0.46217066468131474,0.38848435536935855,-0.008686108201635179
0.37,0.4658128231868015,0.3642158505486769,0.007824501902308434
0.38,0.46922718547668985,0.3414362289888356,0.02332098852242126
0.39,0.47242772787146775,0.32005423947778866,0.03786550907731723
0.4,0.47542757010233805,0.2999842230870314,0.05151641200205037
0.41000000000000003,0.4782390278070224,0.2811457704684305,0.06432847001951147
0.42,0.480873661808471,0.26346340014486364,0.0763530991912642
0.43,0.483342324373593,0.2468662565121958,0.08763856458480013
0.44,0.48565520263705964,0.23128782634666756,0.09823017335712403
0.45,0.48782185936390754,0.21666567268478829,0.10817045601707043
0.46,0.48985127121402383,0.20294118501163078,0.11749933658461797
0.47000000000000003,0.4917518646616081,0.19005934475842476,0.1262542923255332
0.48,0.49353154971332147,0.17796850517133864,0.13447050369786395
0.49,0.4951977515600302,0.16662018467087222,0.14218099511056348
0.5,0.496757440288781,0.15596887287507868,0.14941676705562323
0.51,0.49821715877388684,0.14597184851058398,0.15620692014319726
0.52,0.4995830488587153,0.13658900848284716,0.16257877153510447
0.53,0.5008608759329334,0.1277827074218043,0.16855796424307146
0.54,0.5020560520035423,0.11951760706089085,0.1741685697284222
0.55,0.5031736573520108,0.11176053484684718,0.17943318421437904
0.56,0.5042184608641562,0.1044803512145462,0.18437301909533788
0.5700000000000001,0.505194939114115,0.09764782499587549,0.18900798580609834
0.58,0.5061072942787561,0.09123551646411773,0.19335677548927377
0.59,0.5069594709542157,0.08521766754595354,0.19743693378094207
0.6,0.5077551719418334,0.07957009876176667,0.20126493101253673
0.61,0.5084978730666528,0.0742701124819403,0.20485622811074133
0.62,0.5091908370877735,0.06929640211206099,0.20822533845863034
0.63,0.5098371267562102,0.06462896684367651,0.211385885965645
0.64,0.5104396170725055,0.060249031629535196,0.21435065957887578
0.65,0.5110010067931366,0.0561389720631079,0.21713166445345655
0.66,0.5115238292317553,0.05228224386186646,0.21974016998730928
0.67,0.5120104623984768,0.04866331667214963,0.22218675491180273
0.68,0.5124631385177844,0.045267611930755666,0.2244813496189062
0.6900000000000001,0.5128839529631314,0.042081444534699544,0.2266332758948687
0.7000000000000001,0.5132748726439885,0.03909196808570997,0.22865128421840497
0.71,0.5136377438788926,0.03628712349040572,0.23054358877323722
0.72,0.5139742997859974,0.03365559071048436,0.23231790031475297
0.73,0.5142861672206964,0.031186743469897336,0.23398145702265272
0.74,0.514574873288074,0.02887060673776307,0.23554105346250043
0.75,0.5148418514562438,0.02669781681697643,0.2370030677730588
0.76,0.5150884472950309,0.024659583878705763,0.23837348718626405
0.77,0.515315923862961,0.02274765679301206,0.23965793198451368
0.78,0.5155254667641088,0.020954290114778406,0.24086167798879454
0.79,0.5157181888950378,0.019272213092907248,0.24198967766908175
0.8,0.5158951349008258,0.01769460057880185,0.24304657996111034
0.81,0.5160572853580024,0.01621504571765693,0.24403674886790383
0.8200000000000001,0.5162055607011367,0.014827534313418591,0.24496428092250067
0.8300000000000001,0.5163408249087842,0.013526420764749877,0.2458330215795521
0.84,0.5164638889635417,0.012306405475745909,0.24664658060258993
0.85,0.5165755141000521,0.011162513651043822,0.24740834650853727
0.86,0.5166764148539567,0.010090075390461157,0.2481215001267516
0.87,0.5167672619239919,0.009084707003525578,0.24878902732714558
0.88,0.5168486848586833,0.00814229346914244,0.24941373096834085
0.89,0.5169212745783855,0.007258971970229826,0.2499982421136726
0.9,0.5169855857427594,0.0064311164373922185,0.2505450305593282
0.91,0.5170421389731581,0.005655323039869207,0.2510564147180192
0.92,0.5170914229388146,0.00492839656564769,0.25153457089635733
0.93,0.5171338963151773,0.004247337636264235,0.25198154200385514
0.9400000000000001,0.5171699896222289,0.0036093307051628205,0.2523992457283877
0.9500000000000001,0.5172001069501443,0.0030117327915357133,0.25278948221010156
0.96,0.5172246275791907,0.002452062904649414,0.25315394124578594
0.97,0.5172439075003533,0.00192799211625914,0.2534942090509251
0.98,0.5172582808427679,0.001437334241455444,0.2538117746079527
0.99,0.5172680612136742,0.000978037090631793,0.2541080356252202
1.0,0.5172735429562499,0.0005481742575786023,0.2543843041308368
1.01,0.517275002330358,0.00014593741079774555,0.25464181172319533
1.02,0.517272698620931,-0.00023037094269476495,0.2548817145007938
1.03,0.5172668751784297,-0.0005823442501266614,0.2551050976890118
1.04,0.5172577603955351,-0.0009114782894659907,0.25531297998331526
1.05,0.5172455686239844,-0.0012191771550626358,0.2555063176273278
1.06,0.517230501035219,-0.0015067588765425872,0.25568600823943954
1.07,0.5172127464282861,-0.0017754606932922207,0.255852894406286
1.08,0.5171924819882289,-0.002026444005725038,0.25600776705515027
1.09,0.517169873997998,-0.002260799023086953,0.25615136862020904
1.1,0.5171450785067334,-0.0024795491264527642,0.2562843960141865
1.11,0.5171182419570901,-0.002683654964329903,0.2564075034182727
1.12,0.5170895017741177,-0.002874018297238758,0.25652130490124003
1.1300000000000001,0.5170589869180506,-0.0030514856067043977,0.25662637687754053
1.1400000000000001,0.51702681840322,-0.0032168514830635446,0.25672326041509863
1.1500000000000001,0.5169931097851633,-0.0033708618056600484,0.2568124634014918
1.16,0.516957967617882,-0.003514216728124987,0.25689446257764925
1.17,0.5169214918830749,-0.0036475734807154504,0.2569697054466301
1.18,0.5168837763930657,-0.0037715490009193452,0.25703861206546275
1.19,0.5168449091690375,-0.0038867224028221524,0.2571015767274588
1.2,0.5168049727960858,-0.0039936372951674525,0.25715896954092465
1.21,0.5167640447565124,-0.004092803957339726,0.2572111379115618
1.22,0.5167221977426926,-0.004184701381976281,0.25725840793402366
1.23,0.5166794999507681,-0.004269779192447799,0.2573010856975323
1.24,0.5166360153563404,-0.004348459442773418,0.2573394585125055
1.25,0.516591803973268,-0.0044211383072432445,0.25737379606133326
1.26,0.5165469220966028,-0.004488187666516924,0.257404351478535
1.27,0.5165014225306379,-0.004549956596493554,0.25743136236520925
1.28,0.5164553548029784,-0.0046067727659483085,0.25745505174094674
1.29,0.5164087653654935,-0.0046589437484951535,0.25747562893772336
1.3,0.5163616977829517,-0.004706758254182592,0.2574932904384476
1.31,0.516314192910096,-0.00475048728557454,0.25750822066484724
1.32,0.516266289057866,-0.004790385223002436,0.2575205927164903
1.33,0.5162180221494329,-0.004826690843310172,0.2575305690647055
1.34,0.5161694258666716,-0.0048596282761347925,0.25753830220430474
1.35,0.5161205317876553,-0.004889407901627158,0.2575439352646054
1.36,0.5160713695157241,-0.004916227193119416,0.2575476025838237
1.37,0.5160219668006423,-0.004940271508177513,0.2575494302476251
1.3800000000000001,0.5159723496523309,-0.004961714831136632,0.2575495365953211
1.3900000000000001,0.5159225424476291,-0.004980720470173571,0.2575480326942392
1.4000000000000001,0.5158725680305127,-0.004997441711636768,0.2575450227856739
1.41,0.5158224478061701,-0.005012022434258122,0.25754060470346096
1.42,0.5157722018293124,-0.005024597685774106,0.25753487026621236
1.43,0.5157218488870708,-0.00503529422415051,0.25752790564660344
1.44,0.5156714065768141,-0.0050442310256804115,0.2575197917170289
1.45,0.5156208913791949,-0.005051519761927214,0.257510604374655
1.46,0.5155703187267207,-0.0050572652474221375,0.25750041484655184
1.47,0.515519703068121,-0.005061565859961209,0.2574892899755985
1.48,0.5154690579287698,-0.0050645139351179255,0.25747729248949525
1.49,0.5154183959674039,-0.005066196136590195,0.25746448125290633
1.5,0.5153677290293657,-0.005066693803823968,0.2574509115045347
1.51,0.5153170681965819,-0.005066083278383787,0.25743663507889347
1.52,0.5152664238344792,-0.005064436210266638,0.25742170061554326
1.53,0.5152158056360244,-0.005061819845479332,0.2574061537545993
1.54,0.5151652226630645,-0.005058297295984948,0.2573900373206821
1.55,0.5151146833851337,-0.005053927793083707,0.25737339149574545
1.56,0.5150641957158806,-0.005048766925311149,0.2573562539806382
1.57,0.5150137670472635,-0.00504286686170315,0.25733866014775475
1.58,0.5149634042816494,-0.005036276561406012,0.257320643183518
1.59,0.5149131138619449,-0.005029041970451038,0.25730223422230414
1.6,0.5148629017998805,-0.00502120620645138,0.2572834624724465
1.61,0.5148127737025607,-0.005012809731976082,0.25726435533437064
1.62,0.5147627347973877,-0.005003890517309174,0.25724493851135066
1.6300000000000001,0.5147127899554552,-0.00499448419324502,0.2572252361134699
1.6400000000000001,0.5146629437135103,-0.004984624194493849,0.2572052707555771
1.6500000000000001,0.5146132002945671,-0.004974341894314906,0.2571850636488199
1.6600000000000001,0.5145635636272582,-0.004963666730894902,0.25716463468676787
1.67,0.5145140373639984,-0.004952626325982231,0.25714400252621106
1.68,0.5144646248980359,-0.004941246596247896,0.2571231846630434
1.69,0.5144153293794577,-0.004929551857825239,0.2571021975034321
1.7,0.5143661537302133,-0.0049175649244366975,0.257081056430723
1.71,0.5143171006582181,-0.0049053071995171635,0.25705977586808015
1.72,0.5142681726705913,-0.004892798762675462,0.2570383693375502
1.73,0.5142193720860825,-0.004880058450883098,0.2570168495150855
1.74,0.5141707010467359,-0.004867103934655761,0.25699522828277044
1.75,0.51412216152884,-0.004853951789583041,0.25697351677736235
1.76,0.5140737553532053,-0.004840617563478252,0.25695172543598876
1.77,0.5140254841948113,-0.0048271158394061955,0.2569298640391493
1.78,0.5139773495918629,-0.004813460294836943,0.25690794175112786
1.79,0.513929352954291,-0.0047996637571974775,0.25688596715758427
1.8,0.5138814955717308,-0.004785738256017543,0.25686394830108494
1.81,0.5138337786210124,-0.004771695071839446,0.2568418927148455
1.82,0.5137862031731905,-0.004757544782192432,0.2568198074533844
1.83,0.5137387702001436,-0.004743297304688579,0.25679769912252415
1.84,0.5136914805807682,-0.004728961937535139,0.25677557390637173
1.85,0.5136443351067932,-0.0047145473975046615,0.2567534375938121
1.86,0.5135973344882369,-0.004700061855638207,0.2567312956021859
1.87,0.5135504793585298,-0.004685512970699642,0.25670915300072217
1.8800000000000001,0.5135037702793235,-0.004670907920629682,0.2566870145314295
1.8900000000000001,0.5134572077450029,-0.004656253432058629,0.2566648846293408
1.9000000000000001,0.513410792186923,-0.004641555807991851,0.25664276744156633
1.9100000000000001,0.513364523977385,-0.004626820953801944,0.256620666844961
1.92,0.5133184034333683,-0.004612054401662078,0.2565985864624011
1.93,0.5132724308200339,-0.004597261333434114,0.25657652967888067
1.94,0.5132266063540121,-0.004582446602190724,0.25655449965577914
1.95,0.513180930206488,-0.004567614752403435,0.2565324993447694
1.96,0.5131354025060993,-0.00455277003887247,0.2565105315009335
1.97,0.5130900233416538,-0.004537916444552767,0.25648859869430307
1.98,0.5130447927646816,-0.004523057697217229,0.25646670332195465
1.99,0.5129997107918299,-0.004508197285171959,0.2564448476179326
2.0,0.5129547774071106,-0.004493338471930234,0.2564230336640736
2.0100000000000002,0.5129099925640102,-0.004478484310049533,0.2564012633987658
2.02,0.5128653561874691,-0.0044636376541066815,0.2563795386259311
2.0300000000000002,0.5128208681757407,-0.004448801172836989,0.25635786102372615
2.04,0.5127765284021347,-0.004433977360592304,0.25633623215167534
2.05,0.5127323367166542,-0.00441916854805419,0.25631465345841886
2.06,0.5126882929475312,-0.004404376912301137,0.2562931262884549
2.07,0.5126443969026686,-0.00438960448625169,0.256271651888645
2.08,0.5126006483709931,-0.00437485316755296,0.25625023141400904
2.09,0.5125570471237241,-0.0043601247268971735,0.2562288659336768
2.1,0.5125135929155656,-0.004345420815839472,0.25620755643609416
2.11,0.5124702854858243,-0.004330742974137202,0.25618630383401353
2.12,0.5124271245594578,-0.00431609263664494,0.2561651089691279
2.13,0.5123841098480603,-0.004301471139760792,0.25614397261673816
2.14,0.512341241050785,-0.004286879727524622,0.2561228954894038
2.15,0.5122985178552122,-0.00427231955728508,0.25610187824141173
2.16,0.5122559399381615,-0.0042577917050697234,0.25608092147189543
2.17,0.5122135069664555,-0.004243297170603188,0.2560600257284926
2.18,0.5121712185976355,-0.004228836882000941,0.2560391915107201
2.19,0.5121290744806333,-0.004214411700216891,0.2560184192725582
2.2,0.5120870742564014,-0.004200022423182553,0.25599770942564914
2.21,0.5120452175585043,-0.004185669789708567,0.2559770623417814
2.22,0.5120035040136729,-0.004171354483136035,0.25595647835549207
2.23,0.5119619332423251,-0.0041570771347840645,0.2559359577661994
2.24,0.5119205048590534,-0.004142838327165842,0.25591550084060555
2.25,0.5118792184730834,-0.004128638597002931,0.2558951078147975
2.2600000000000002,0.5118380736887024,-0.004114478438097879,0.25587477889574206
2.27,0.5117970701056628,-0.004100358303962831,0.2558545142637968
2.2800000000000002,0.5117562073195593,-0.004086278610354149,0.25583431407372004
2.29,0.5117154849221833,-0.004072239737598965,0.25581417845681376
2.3000000000000003,0.5116749025018552,-0.004058242032809306,0.2557941075221083
2.31,0.5116344596437357,-0.004044285811953479,0.2557741013578454
2.32,0.5115941559301176,-0.004030371361803031,0.2557541600327746
2.33,0.5115539909407002,-0.0040164989417432176,0.2557342835975668
2.34,0.5115139642528452,-0.004002668785501777,0.2557144720856773
2.35,0.5114740754418179,-0.003988881102733576,0.2556947255148295
2.36,0.5114343240810124,-0.0039751360805450765,0.25567504388765727
2.37,0.5113947097421633,-0.0039614338849144936,0.2556554271927848
2.38,0.5113552319955432,-0.003947774662010665,0.2556358754058742
2.39,0.5113158904101488,-0.0039341585394397785,0.25561638849037993
2.4,0.5112766845538746,-0.003920585627411642,0.2555969663983838
2.41,0.5112376139936761,-0.003907056019860042,0.25557760907108273
2.42,0.5111986782957215,-0.003893569795455546,0.25555831643989
2.43,0.5111598770255358,-0.0038801270185708702,0.25553908842693474
2.44,0.5111212097481338,-0.00386672774019973,0.25551992494555076
2.45,0.5110826760281456,-0.003853371998813607,0.25550082590091816
2.46,0.5110442754299342,-0.003840059821141653,0.2554817911908517
2.47,0.5110060075177048,-0.0038267912229539374,0.2554628207057872
2.48,0.5109678718556074,-0.0038135662097276784,0.25544391432996727
2.49,0.5109298680078341,-0.0038003847773357496,0.25542507194123665
2.5,0.5108919955387073,-0.00378724691267612,0.25540629341164656
2.5100000000000002,0.5108542540127652,-0.003774152594216021,0.25538757860832084
2.52,0.5108166429948393,-0.0037611017925837237,0.25536892739299477
2.5300000000000002,0.5107791620501289,-0.0037480944710481996,0.2553503396231457
2.54,0.5107418107442686,-0.003735130586025795,0.2553318151517361
2.5500000000000003,0.5107045886433935,-0.0037222100875079515,0.25531335382801146
2.56,0.5106674953141984,-0.0037093329195053842,0.25529495549734704
2.57,0.5106305303239941,-0.003696499020439034,0.2552766200017874
2.58,0.5105936932407589,-0.0036837083235231353,0.25525834718013407
2.59,0.510556983633188,-0.00367096075708839,0.25524013686855074
2.6,0.5105204010707386,-0.0036582562449444826,0.25522198890017866
2.61,0.5104839451236719,-0.0036455947066690725,0.25520390310587615
2.62,0.5104476153630928,-0.003632976057905038,0.2551858793141428
2.63,0.5104114113609866,-0.003620400210629113,0.2551679173514104
2.64,0.5103753326902524,-0.0036078670734182665,0.2551500170420703
2.65,0.5103393789247358,-0.0035953765516596485,0.25513217820904144
2.66,0.5103035496392577,-0.0035829285478123,0.2551144006732584
2.67,0.5102678444096418,-0.0035705229615936,0.2550966842544252
2.68,0.51023226281274,-0.003558159690180748,0.25507902877086974
2.69,0.5101968044264559,-0.00354583862841086,0.25506143403955983
2.7,0.5101614688297667,-0.0035335596689275686,0.25504389987664033
2.71,0.5101262556027428,-0.0035213227023840415,0.2550264260968722
2.72,0.5100911643265673,-0.003509127617548044,0.25500901251461217
2.73,0.5100561945835524,-0.003496974301482006,0.25499165894306663
2.74,0.5100213459571558,-0.003484862639668798,0.2549743651948342
2.75,0.5099866180319944,-0.003472792516135267,0.25495713108192974
2.7600000000000002,0.5099520103938587,-0.0034607638135642407,0.2549399564159007
2.77,0.5099175226297246,-0.003448776413414503,0.25492284100774854
2.7800000000000002,0.5098831543277643,-0.003436830196028675,0.2549057846680498
2.79,0.509848905077357,-0.003424925040725243,0.25488878720711505
2.8000000000000003,0.5098147744690983,-0.003413060825877115,0.25487184843512356
2.81,0.5097807620948079,-0.003401237429032547,0.25485496816170095
2.82,0.5097468675475384,-0.0033894547269543857,0.25483814619673395
2.83,0.5097130904215811,-0.003377712595730256,0.2548213823496628
2.84,0.5096794303124729,-0.0033660109108197083,0.2548046764301095
2.85,0.5096458868170015,-0.0033543495471333533,0.254788028247559
2.86,0.5096124595332107,-0.003342728379090712,0.2547714376115705
2.87,0.5095791480604038,-0.003331147280683336,0.25475490433172454
2.88,0.5095459519991488,-0.0033196061255124504,0.2547384282178766
2.89,0.5095128709512801,-0.003308104786868929,0.25472200907973397
2.9,0.5094799045199025,-0.003296643137750413,0.25470564672748175
2.91,0.5094470523093932,-0.0032852210509344477,0.2546893409712234
2.92,0.5094143139254033,-0.003273838399003523,0.2546730916214591
2.93,0.5093816889748595,-0.0032624950543829,0.2546568984889577
2.94,0.5093491770659656,-0.0032511908893850003,0.2546407613846896
2.95,0.5093167778082032,-0.003239925776241945,0.2546246801199441
2.96,0.5092844908123317,-0.0032286995871423506,0.25460865450628545
