time,theta,theta_dot,tau
0.0,0.01,1.0,5
0.01,0.029580000000000002,1.958,5
0.02,0.05725492400000001,2.767492400000001,4.468642000000006
0.03,0.08297875476720004,2.5723830767200027,-0.3647932123999915
0.04,0.10726915600519214,2.4290401237992096,-0.11925939449276335
0.05,0.13018943571639607,2.2920279711203935,-0.09198358262904627
0.06,0.15181742505943363,2.1627989343037544,-0.0575501541427208
0.07,0.17222580719291758,2.0408382133483958,-0.02542639285660897
0.08,0.1914832087610691,1.9257401568151535,0.004903167196385283
0.09,0.20965439401285632,1.8171185251787212,0.033523081941938315
0.1,0.2268004835528847,1.7146089540028382,0.06053024316918609
0.11,0.24297915927319114,1.6178675720306421,0.08601536449247149
0.12,0.2582448578197728,1.5265698546581685,0.11006408681695135
0.13,0.27264895317185145,1.4404095352078659,0.13275723149989282
0.14,0.286239928949247,1.3590975777395522,0.15417107287185594
0.15,0.2990635410256414,1.2823612076394444,0.1743775939966179
0.16,0.31116297099313434,1.2099429967492936,0.1934447281027767
0.17,0.32257897099280014,1.141599999966582,0.21143658642943475
0.18,0.3333500003970012,1.0771029404201058,0.22841367325373518
0.19,0.34351235480188097,1.0162354404879776,0.24443308882038117
0.2,0.35310028776267066,0.9587932960789689,0.2595487208544327
0.21,0.36214612568010246,0.90458379174318,0.2738114252995203
0.22,0.3706803762232518,0.8534250543149328,0.2872691968875021
0.23,0.37873183065245253,0.8051454429200721,0.29996733011193477
0.24,0.38632766038547023,0.7595829733017702,0.3119485711449572
0.25,0.3934935081308111,0.7165847745340854,0.32325326120740083
0.26,0.4002535738938217,0.676006576301064,0.3339194718725209
0.27,0.4066306961440401,0.6377122250218421,0.34398313275792525
0.28,0.4126464284160279,0.6015732271987763,0.3534781520330794
0.29,0.4183211116005984,0.5674683184570537,0.36243653014717037
0.3,0.42367394216890214,0.535283056830373,0.3708884671586059
0.31,0.42872303655818794,0.5049094389285813,0.37886246402601786
0.32,0.4334854919351871,0.4762455376999165,0.38638541820058014
0.33,0.4379774435409167,0.4491951605729647,0.39348271384041134
0.34,0.4422141188092337,0.42366752683170156,0.400178306949194
0.35000000000000003,0.44620988844064974,0.3995769631416013,0.4064948057250728
0.36,0.4499783146027059,0.3768426162056117,0.4124535463890222
0.37,0.45353219641856835,0.3553881815862471,0.41807466474700505
0.38,0.4568836128964114,0.33514164778430516,0.4233771637261081
0.39,0.4600439634435697,0.3160350547158289,0.428378977110891
0.4,0.4630240061013428,0.29800426577731304,0.4330970296941563
0.41000000000000003,0.46583389362868916,0.2809887527346343,0.43754729404341175
0.42,0.46848320755583134,0.26493139271422017,0.4417448440735454
0.43,0.47098099032198776,0.24977827661564053,0.4457039056057772
0.44,0.47333577560501744,0.2354785283029708,0.4494379040817673
0.45,0.4755556169447034,0.22198413396859737,0.4529595095937444
0.46,0.47764811475567365,0.20924978109702547,0.4562806793805634
0.47000000000000003,0.4796204418205612,0.19723270648875577,0.4594126979337303
0.48,0.48147936734890495,0.18589255283437553,0.46236621484641116
0.49,0.4832312796824833,0.17519123335783773,0.46515128053309107
0.5,0.484882207723234,0.1650928040750675,0.46777737994019963
0.51,0.48643784115562655,0.15556334323925688,0.47025346435919446
0.52,0.487903549531314,0.14657083756874326,0.47258798145090974
0.53,0.48928440028007075,0.1380850748756749,0.4747889035797208
0.54,0.49058517570742577,0.1300775427355027,0.4768637545543448
0.55,0.4918103890359994,0.12252133285736287,0.47881963486382717
0.56,0.4929642995443455,0.11539105083461236,0.4806632454937194
0.5700000000000001,0.49405092685407437,0.10866273097288821,0.4824009104026472
0.58,0.495074064413174,0.10231375590995888,0.48403859773400537
0.59,0.4960372922207519,0.096322780757791,0.4855819398343263
0.6,0.4969439888358767,0.09066966151248206,0.4870362521457654
0.61,0.49779734271079473,0.085335387491802,0.4884065510349729
0.62,0.4986003628865339,0.08030201757392114,0.48969757061975083
0.63,0.4993558890867672,0.07555262002332581,0.4909137786483415
0.64,0.5000666012437889,0.07107121570216339,0.4920593914856203
0.65,0.5007350284885549,0.0668427244765978,0.49313838825639356
0.66,0.5013635576349379,0.0628529146383008,0.4941545241923895
0.67,0.5019544411866536,0.05908835517156295,0.4951113432289088
0.68,0.5025098048937121,0.05553637070585903,0.49601218989244655
0.6900000000000001,0.5030316548837407,0.05218499900285661,0.4968602205198718
0.7000000000000001,0.5035218843920919,0.04902295083511988,0.49765841384562837
0.71,0.503982280113314,0.04603957212221078,0.49840958099457033
0.72,0.5044145281952829,0.0432248081968808,0.4991163749111063
0.73,0.5048202198961007,0.04056917008178106,0.49978129925916037
0.74,0.5052008569227346,0.038063702663393775,0.5004067168205205
0.75,0.5055578564693001,0.03569995465654685,0.5009948574211788
0.76,0.5058925559718874,0.03346995025873274,0.5015478254115389
0.77,0.506206217595879,0.031366162399159264,0.5020676067257666
0.78,0.5065000324708078,0.029381487492878517,0.5025560755443071
0.79,0.5067751246869594,0.027509221615160367,0.5030150005807927
0.8,0.5070325550671232,0.02574303801638315,0.5034460510161054
0.81,0.5072733247261431,0.024076965901982734,0.5038508020983977
0.8200000000000001,0.5074983784302041,0.022505370406104702,0.5042307404271494
0.8300000000000001,0.5077086077671257,0.021022933692165617,0.5045872689417296
0.84,0.5079048541382903,0.019624637116467475,0.5049217116270681
0.85,0.5080879115822454,0.018305744395504746,0.5052353179567702
0.86,0.5082585294394472,0.017061785720172543,0.5055292670846854
0.87,0.5084174148670847,0.015888542763748206,0.50580467180136
0.88,0.5085652352124178,0.014782034533306867,0.5060625822676277
0.89,0.5087026202525899,0.013738504017211287,0.5063039895386012
0.9,0.5088301643084273,0.012754405583738795,0.5065298288886697
0.91,0.5089484282393145,0.01182639308872129,0.5067409829500875
0.92,0.5090579413258368,0.010951308652233663,0.5069382846746207
0.93,0.5091592030465042,0.010126172066741893,0.5071225201288247
0.9400000000000001,0.5092526847545151,0.009348170801093628,0.5072944311316112
0.9500000000000001,0.5093388312601848,0.008614650566957607,0.5074547177440537
0.96,0.5094180623243444,0.007923106415962392,0.5076040406186002
0.97,0.5094907740677217,0.007271174337729528,0.5077430232163725
0.98,0.5095573403010274,0.006656623330565007,0.507872253899445
0.99,0.5096181137802107,0.00607734791833208,0.5079922879059757
1.0,0.5096734273910936,0.005531361088285717,0.5081036492136453
1.01,0.5097235952673554,0.005016787626192934,0.5082068322982868
1.02,0.5097689138456205,0.004531857826508981,0.5083023037941743
1.03,0.5098096628611839,0.004074901556338876,0.5083905040600718
1.04,0.5098461062877182,0.0036443426534261726,0.5084718486578882
1.05,0.5098784932241109,0.003238693639271476,0.5085467297476299
1.06,0.5099070587314082,0.0028565507297226432,0.5086155174042211
1.07,0.5099320246226705,0.00249658912623432,0.5086785608599111
1.08,0.5099536002083915,0.002157558572096766,0.5087361896772296
1.09,0.5099719829999777,0.0018382791586171656,0.5087887148554129
1.1,0.509987359373651,0.0015376373673283961,0.5088364298752572
1.11,0.5099999051969983,0.0012545823347278418,0.5088796116841139
1.12,0.5100097864202717,0.0009881223273396499,0.5089185216270029
1.1300000000000001,0.5100171596344211,0.0007373214149385886,0.5089534063237343
1.1400000000000001,0.5100221725977313,0.000501296331023918,0.5089844984978354
1.1500000000000001,0.5100249647328303,0.0002792135098983715,0.5090120177583084
1.16,0.510025667595735,7.02862904692601e-05,0.5090361713376644
1.17,0.5100244053185082,-0.00012622772267016597,0.5090571547881317
1.18,0.5100212950270111,-0.0003110291497084607,0.5090751526387828
1.19,0.5100164472351523,-0.00048477918588429555,0.5090903390161903
1.2,0.510009966216956,-0.0006481018196215795,0.509102878229289
1.21,0.5100019503576981,-0.0008015859257924886,0.5091129253221772
1.22,0.5099924924852851,-0.0009457872413024284,0.5091206265949899
1.23,0.5099816801829908,-0.0010812302294262966,0.5091261200964052
1.24,0.5099695960845975,-0.001208409839335497,0.5091295360875596
1.25,0.5099563181529315,-0.0013277931665913035,0.5091309974804513
1.26,0.5099419199427292,-0.0014398210202294117,0.5091306202514227
1.27,0.5099264708487123,-0.0015449094016839883,0.5091285138314104
1.28,0.5099100363397073,-0.0016434509004977528,0.5091247814743067
1.29,0.5098926781795923,-0.0017358160115056277,0.5091195206045684
1.3,0.5098744546358128,-0.001822354377947596,0.5091128231450813
1.31,0.5098554206761671,-0.00190339596457609,0.5091047758270808
1.32,0.5098356281545188,-0.001979252164828745,0.5090954604819886
1.33,0.5098151259860619,-0.002050216845687688,0.5090849543172583
1.34,0.5097939603127245,-0.0021165673337472514,0.5090733301766266
1.35,0.5097721746592666,-0.0021785653457875053,0.5090606567857738
1.36,0.5097498100805962,-0.0022364578670460897,0.5090469989838162
1.37,0.5097269053007956,-0.00229047798005488,0.509032417942143
1.3800000000000001,0.5097034968443278,-0.0023408456467793404,0.5090169713711623
1.3900000000000001,0.5096796191598587,-0.00238776844690611,0.5090007137143381
1.4000000000000001,0.5096553047371148,-0.002431442274382275,0.5089836963330967
1.41,0.5096305842171647,-0.00247205199501301,0.5089659676790848
1.42,0.5096054864964963,-0.00250977206684004,0.508947573459027
1.43,0.5095800388252387,-0.0025447671257583255,0.5089285567885369
1.44,0.5095542668998576,-0.0025771925381104137,0.5089089583383266
1.45,0.5095281949506352,-0.0026071949222475424,0.5088888164715499
1.46,0.509501845824228,-0.0026349126407201064,0.5088681673738228
1.47,0.5094752410615806,-0.002660476264737728,0.5088470451759959
1.48,0.5094484009714546,-0.002684009012594908,0.5088254820693472
1.49,0.5094213446998214,-0.002705627163324249,0.5088035084152889
1.5,0.5093940902953497,-0.0027254404471696424,0.5087811528479296
1.51,0.5093666547712097,-0.0027435524139966814,0.5087584423717806
1.52,0.5093390541633989,-0.0027600607810806376,0.5087354024529905
1.53,0.5093113035857865,-0.0027750577612376936,0.5087120571063974
1.54,0.509283417282061,-0.002788630372549612,0.5086884289769793
1.55,0.5092554086747546,-0.0028008607306394275,0.508664539417102
1.56,0.5092272904115094,-0.0028118263245195687,0.508640408559226
1.57,0.5091990744087407,-0.002821600276865839,0.5086160553848741
1.58,0.5091707718928429,-0.002830251589779649,0.5085914977887984
1.59,0.5091423934390773,-0.0028378453765568645,0.5085667526410008
1.6,0.5091139490082721,-0.002844443080520782,0.5085418358439463
1.61,0.5090854479814567,-0.002850102681538487,0.5085167623870794
1.62,0.509056899192548,-0.002854878890867969,0.5084915463985016
1.6300000000000001,0.5090283109591969,-0.002858823335113421,0.5084662011931472
1.6400000000000001,0.5089996911118994,-0.0028619847297467428,0.5084407393190076
1.6500000000000001,0.5089710470214698,-0.002864409042953149,0.508415172599918
1.6600000000000001,0.5089423856249679,-0.002866139650191597,0.5083895121766869
1.67,0.5089137134501669,-0.002867217480092594,0.5083637685454245
1.68,0.5088850366386456,-0.0028676811521318245,0.5083379515939522
1.69,0.5088563609675796,-0.0028675671065962315,0.5083120706358972
1.7,0.5088276918703081,-0.0028669097271529285,0.5082861344434768
1.71,0.5087990344557415,-0.002865741456661093,0.5082601512773367
1.72,0.5087703935266786,-0.0028640929062823516,0.5082341289163029
1.73,0.5087417735970923,-0.0028619929586366677,0.5082080746836506
1.74,0.5087131789084417,-0.0028594688650523236,0.5081819954732867
1.75,0.5086846134450684,-0.0028565463373252118,0.5081558977740668
1.76,0.5086560809487242,-0.002853249634425254,0.5081297876921032
1.77,0.5086275849322823,-0.0028496016441808608,0.5081036709730611
1.78,0.5085991286926773,-0.0028456239604957197,0.5080775530218719
1.79,0.5085707153231159,-0.0028413369561428765,0.5080514389223424
1.8,0.5085423477246008,-0.0028367598515084587,0.5080253334550594
1.81,0.508514028616807,-0.002831910779386466,0.5079992411149091
1.82,0.508485760548344,-0.002826806846285019,0.5079731661264368
1.83,0.508457545906443,-0.002821464190102913,0.5079471124599976
1.84,0.5084293869260961,-0.0028158980346945036,0.5079210838454644
1.85,0.5084012856986831,-0.0028101227412878414,0.5078950837861905
1.86,0.5083732441801129,-0.0028041518570300415,0.5078691155717145
1.87,0.5083452641985041,-0.0027979981608739113,0.5078431822894875
1.8800000000000001,0.508317347461437,-0.00279167370671249,0.5078172868371365
1.8900000000000001,0.5082894955627941,-0.002785189864290345,0.5077914319322052
1.9000000000000001,0.5082617099892175,-0.002778557357664919,0.5077656201230631
1.9100000000000001,0.5082339921262021,-0.002771786301535424,0.507739853798332
1.92,0.5082063432638461,-0.002764886235606796,0.5077141351955382
1.93,0.508178764602277,-0.0027578661569143746,0.5076884664101868
1.94,0.5081512572567731,-0.002750734550382834,0.5076628494035518
1.95,0.5081238222625966,-0.0027434994176518132,0.5076372860103516
1.96,0.5080964605795534,-0.0027361683043135307,0.5076117779457576
1.97,0.5080691730962976,-0.0027287483255707245,0.5075863268124047
1.98,0.508041960634393,-0.0027212461904604535,0.5075609341067349
1.99,0.5080148239521455,-0.0027136682247469192,0.5075356012248686
2.0,0.5079877637482206,-0.0027060203924807306,0.507510329468527
2.0100000000000002,0.5079607806650566,-0.002698308316403049,0.5074851200501129
2.02,0.5079338752920852,-0.0026905372971301315,0.5074599740981406
2.0300000000000002,0.5079070481687721,-0.002682712331319999,0.5074348926617098
2.04,0.5078802997874842,-0.0026748381287959827,0.5074098767151282
2.05,0.5078536305961976,-0.002666919128660901,0.5073849271624004
2.06,0.5078270410010515,-0.002658959514611832,0.5073600448407107
2.07,0.5078005313687586,-0.0026509632292854596,0.5073352305247609
2.08,0.5077741020288801,-0.002642933987854153,0.507310484930058
2.09,0.5077477532759715,-0.002634875290849333,0.5072858087163333
2.1,0.5077214853716094,-0.002626790436209899,0.5072612024909988
2.11,0.5076952985463016,-0.002618682530784474,0.5072366668114946
2.12,0.5076691930012914,-0.0026105545010182106,0.507212202188976
2.13,0.5076431689102596,-0.0026024091031769912,0.5071878090902939
2.14,0.5076172264209307,-0.002594248932891393,0.5071634879410523
2.15,0.5075913656565878,-0.002586076434280168,0.5071392391274085
2.16,0.5075655867175035,-0.002577893908430636,0.5071150629989795
2.17,0.5075398896822885,-0.002569703521499452,0.5070909598704733
2.18,0.5075142746091656,-0.002561507312282237,0.5070669300240747
2.19,0.5074887415371708,-0.002553307199477991,0.5070429737107305
2.2,0.5074632904872872,-0.002545104988361332,0.5070190911528585
2.21,0.5074379214635144,-0.0025369023772781464,0.5069952825450309
2.22,0.5074126344538784,-0.0025287009635963833,0.5069715480564676
2.23,0.5073874294313836,-0.0025205022494777488,0.5069478878317523
2.24,0.5073623063549115,-0.0025123076472024245,0.5069243019928646
2.25,0.5073372651700689,-0.002504118484264081,0.5069007906401628
2.2600000000000002,0.5073123058099872,-0.002495936008168373,0.5068773538536947
2.27,0.5072874281960783,-0.0024877613908950574,0.5068539916947201
2.2800000000000002,0.5072626322387455,-0.002479595733282133,0.5068307042059639
2.29,0.5072379178380566,-0.002471440068890637,0.5068074914140465
2.3000000000000003,0.507213284884377,-0.0024632953679644323,0.5067843533289095
2.31,0.5071887332589683,-0.0024551625408740976,0.5067612899462358
2.32,0.5071642628345523,-0.0024470424416022955,0.5067383012471525
2.33,0.5071398734758434,-0.002438935870883993,0.5067153871998233
2.34,0.5071155650400512,-0.0024308435792311095,0.5066925477599311
2.35,0.5070913373773532,-0.0024227662697923176,0.506669782871399
2.36,0.5070671903313434,-0.002414704600983317,0.5066470924674398
2.37,0.5070431237394524,-0.002406659189102853,0.5066244764705491
2.38,0.5070191374333459,-0.002398630610643446,0.5066019347939288
2.39,0.5069952312393,-0.0023906194045869777,0.5065794673414996
2.4,0.5069714049785548,-0.0023826260745282136,0.5065570740086764
2.41,0.5069476584676479,-0.0023746510906867946,0.5065347546828562
2.42,0.5069239915187302,-0.002366694891769392,0.5065125092440975
2.43,0.5069004039398621,-0.002358757886815808,0.5064903375651443
2.44,0.5068768955352938,-0.0023508404568285826,0.5064682395124351
2.45,0.5068534661057298,-0.002342942956401382,0.5064462149460641
2.46,0.5068301154485774,-0.002335065715240379,0.5064242637202545
2.47,0.5068068433581823,-0.002327209039511711,0.5064023856841726
2.48,0.5067836496260497,-0.0023193732132584556,0.5063805806815462
2.49,0.5067605340410536,-0.002311558499608999,0.5063588485516453
2.5,0.5067374963896336,-0.0023037651419934614,0.5063371891292094
2.5100000000000002,0.5067145364559807,-0.002295993365286184,0.5063156022447713
2.52,0.5066916540222125,-0.002288243376830088,0.506294087725204
2.5300000000000002,0.5066688488685379,-0.00228051536745548,0.5062726453937195
2.54,0.5066461207734139,-0.0022728095124099324,0.5062512750702746
2.5500000000000003,0.5066234695136906,-0.002265125972319468,0.5062299765713842
2.56,0.5066008948647516,-0.0022574648939043683,0.5062087497113023
2.57,0.5065783966006424,-0.002249826410914777,0.5061875943009186
2.58,0.5065559744941946,-0.0022422106447713896,0.5061665101491764
2.59,0.5065336283171414,-0.002234617705321471,0.50614549706249
2.6,0.5065113578402263,-0.002227047691517401,0.5061245548450974
2.61,0.5064891628333063,-0.0022195006920006956,0.5061036832995063
2.62,0.5064670430654489,-0.0022119767857408748,0.5060828822262052
2.63,0.506444998305023,-0.0022044760425893742,0.5060621514240582
2.64,0.5064230283197853,-0.0021969985237727065,0.5060414906905885
2.65,0.5064011328769608,-0.002189544282445686,0.5060208998216658
2.66,0.5063793117433195,-0.0021821133641233264,0.5060003786120835
2.67,0.5063575646852481,-0.0021747058071496664,0.5059799268553632
2.68,0.5063358914688171,-0.00216732164309583,0.5059595443440873
2.69,0.5063142918598456,-0.0021599608971552865,0.5059392308699007
2.7,0.5062927656239599,-0.0021526235885719093,0.5059189862233314
2.71,0.5062713125266508,-0.002145309730902676,0.5058988101945916
2.72,0.5062499323333266,-0.0021380193324210574,0.5058787025728784
2.73,0.5062286248093624,-0.002130752396420064,0.5058586631468474
2.74,0.5062073897201477,-0.0021235089214655537,0.505838691704851
2.75,0.5061862268311303,-0.0021162889017342073,0.5058187880345113
2.7600000000000002,0.5061651359078579,-0.002109092327244942,0.5057989519232299
2.77,0.506144116716017,-0.0021019191840953673,0.5057791831581568
2.7800000000000002,0.5061231690214698,-0.0020947694547244194,0.5057594815260527
2.79,0.5061022925902884,-0.0020876431181403128,0.5057398468134454
2.8000000000000003,0.5060814871887876,-0.0020805401500769245,0.5057202788069772
2.81,0.5060607525835549,-0.0020734605232765476,0.5057007772927742
2.82,0.5060400885414792,-0.00206640420757198,0.5056813420574224
2.83,0.5060194948297776,-0.0020593711701654793,0.5056619728869973
2.84,0.5059989712160206,-0.002052361375708854,0.5056426695680276
2.85,0.5059785174681555,-0.002045374786513253,0.5056234318868568
2.86,0.5059581333545287,-0.002038411362681168,0.5056042596300132
2.87,0.5059378186439063,-0.0020314710622331574,0.5055851525842325
2.88,0.5059175731054936,-0.002024553841268005,0.5055661105362854
2.89,0.505897396508953,-0.0020176596540550694,0.5055471332733047
2.9,0.5058772886244213,-0.002010788453179567,0.5055282205825196
2.91,0.5058572492225252,-0.0020039401896054785,0.5055093722516558
2.92,0.5058372780743968,-0.0019971148128363745,0.5054905880684496
2.93,0.5058173749516868,-0.0019903122710051,0.505471867820986
2.94,0.5057975396265777,-0.0019835325109083023,0.5054532112979697
2.95,0.5057777718717961,-0.001976775478168434,0.5054346182880953
2.96,0.5057580714606233,-0.0019700411172724128,0.5054160885806425
2.97,0.5057384381669069,-0.001963329371645027,0.5053976219653058
